# angles(rad), pulling distance(m),                                     elastic band force(n), cable force(n)
0.000000000000000000e+00 5.234993655130571822e-04 8.772880253504966586e-02 1.470172325173863814e-01
1.745329251994329547e-02 1.045526004999855312e-03 1.752952468686888587e-01 2.940459416394741177e-01
3.490658503988659095e-02 1.565987704285811983e-03 2.626419415342843289e-01 4.407798980222350504e-01
5.235987755982988295e-02 2.084794737760126918e-03 3.497255743085821433e-01 5.870269969340488059e-01
6.981317007977318190e-02 2.601859635618496841e-03 4.365169122117073530e-01 7.327104776424507859e-01
8.726646259971647390e-02 3.117097172520472397e-03 5.230008015071644367e-01 8.778697237578432233e-01
1.047197551196597659e-01 3.630423420441114893e-03 6.091761677018368015e-01 1.022663063527749161e+00
1.221730476396030718e-01 4.141754102482637055e-03 6.950560155459871714e-01 1.167371858460150458e+00
1.396263401595463638e-01 4.651004405203838614e-03 7.806674251083796090e-01 1.312400568165424053e+00
1.570796326794896558e-01 5.158088572027628299e-03 8.660474320741770038e-01 1.458202417290205943e+00
1.745329251994329478e-01 5.662919550679451457e-03 9.512311036856621049e-01 1.605078954928300217e+00
1.919862177193762398e-01 6.165408611142852296e-03 1.036249393880386949e+00 1.753275018600080282e+00
2.094395102393195318e-01 6.665464729999932315e-03 1.121129143291634600e+00 1.903009625354439072e+00
2.268928027592628516e-01 7.162998922377557427e-03 1.205893967243804488e+00 2.054479700177523682e+00
2.443460952792061436e-01 7.657931669903802335e-03 1.290567722365306480e+00 2.207920486923931946e+00
2.617993877991494078e-01 8.150181374087172095e-03 1.375175352410126894e+00 2.363644436444989783e+00
2.792526803190927276e-01 8.639653526961516700e-03 1.459742888257827165e+00 2.522040494157799184e+00
2.967059728390360474e-01 9.126259143439695298e-03 1.544297230305469615e+00 2.683426409656566314e+00
3.141592653589793116e-01 9.609913252836065761e-03 1.628864796633568757e+00 2.848091829525323249e+00
3.316125578789225758e-01 1.009051936224070710e-02 1.713471004669575137e+00 3.016405356651067127e+00
3.490658503988658956e-01 1.056800891191135919e-02 1.798140270126855400e+00 3.188493150600015369e+00
3.665191429188092154e-01 1.104230787262779068e-02 1.882895671023108397e+00 3.364662178519805646e+00
3.839724354387524796e-01 1.151328660313218760e-02 1.967755389270927191e+00 3.545450295288842479e+00
4.014257279586957439e-01 1.198086399166695300e-02 2.052730569789383619e+00 3.730530068406804123e+00
4.188790204786390636e-01 1.244496989798027885e-02 2.137825291176541853e+00 3.919744287940013283e+00
4.363323129985823834e-01 1.290552464690997506e-02 2.223037284356240040e+00 4.113070994338958286e+00
4.537856055185257032e-01 1.336244543078144234e-02 2.308363547228347912e+00 4.310682328046683942e+00
4.712388980384689674e-01 1.381563128379555486e-02 2.393802984998894878e+00 4.513053084324613273e+00
4.886921905584122872e-01 1.426498369344969541e-02 2.479356383404325737e+00 4.720512450833428630e+00
5.061454830783556069e-01 1.471041869393163899e-02 2.565025391944053546e+00 4.933226665379262244e+00
5.235987755982988157e-01 1.515185321157011718e-02 2.650811479789762171e+00 5.151449136424189668e+00
5.410520681182421354e-01 1.558920205272521994e-02 2.736715861142148043e+00 5.375477441937516865e+00
5.585053606381854552e-01 1.602237958460410450e-02 2.822739085865002107e+00 5.605579718415323320e+00
5.759586531581287749e-01 1.645129944640085981e-02 2.908880721984462792e+00 5.842017751717841989e+00
5.934119456780720947e-01 1.687587489629569643e-02 2.995139720751518020e+00 6.085084607304899862e+00
6.108652381980153034e-01 1.729601893151014660e-02 3.081515996715023853e+00 6.335205401222827604e+00
6.283185307179586232e-01 1.771164444110489428e-02 3.168010776916700522e+00 6.592867605579148638e+00
6.457718232379019430e-01 1.812266431770058125e-02 3.254625490832676604e+00 6.858511518395769890e+00
6.632251157578451517e-01 1.852899154904754514e-02 3.341360876978393346e+00 7.132532686922994358e+00
6.806784082777884715e-01 1.893053928473756309e-02 3.428217245670930780e+00 7.415369944408613634e+00
6.981317007977317912e-01 1.932722088064550009e-02 3.515194917955807963e+00 7.707528525280580745e+00
7.155849933176750000e-01 1.971894992154942655e-02 3.602294233015514990e+00 8.009550673475164473e+00
7.330382858376184307e-01 2.010564022476870466e-02 3.689515488369290885e+00 8.322012987232524139e+00
7.504915783575616395e-01 2.048720582109601895e-02 3.776858992347884136e+00 8.645540939748151743e+00
7.679448708775049592e-01 2.086356093312845619e-02 3.864325185594220891e+00 8.980821640088127111e+00
7.853981633974482790e-01 2.123461988830487382e-02 3.951914613821030375e+00 9.328596887283920225e+00
8.028514559173914877e-01 2.160029717930624094e-02 4.039627877624563546e+00 9.689662290154824831e+00
8.203047484373349185e-01 2.196050704256462260e-02 4.127466011035249238e+00 1.006493566960788755e+01
8.377580409572781273e-01 2.231516413923735620e-02 4.215430596405086661e+00 1.045541194711428368e+01
8.552113334772214470e-01 2.266416930341954086e-02 4.303521322263461180e+00 1.086231253665028085e+01
8.726646259971647668e-01 2.300742926121281465e-02 4.391736117460935063e+00 1.128637621043129435e+01
8.901179185171079755e-01 2.334485842178271944e-02 4.480076195084240709e+00 1.172898863167670491e+01
9.075712110370514063e-01 2.367637094588542074e-02 4.568543951596072183e+00 1.219166108482213495e+01
9.250245035569946150e-01 2.400188102218011113e-02 4.657139113128914154e+00 1.267549062398420645e+01
9.424777960769379348e-01 2.432130270257823468e-02 4.745861539328231515e+00 1.318208424833343706e+01
9.599310885968812546e-01 2.463454999569551079e-02 4.834712007690448843e+00 1.371333242834787214e+01
9.773843811168245743e-01 2.494153669001123244e-02 4.923691069255243136e+00 1.427115307892517038e+01
9.948376736367677831e-01 2.524217722571340042e-02 5.012799525647720245e+00 1.485770463028715760e+01
1.012290966156711214e+00 2.553638385114263137e-02 5.102037855952234580e+00 1.547542781374652421e+01
1.029744258676654312e+00 2.582407848831451067e-02 5.191405108448740258e+00 1.612618211097237264e+01
1.047197551196597631e+00 2.610525240455667528e-02 5.280903617473486911e+00 1.680927613712942303e+01
1.064650843716540951e+00 2.637997851660173546e-02 5.370535306425234801e+00 1.752182005949746824e+01
1.082104136236484271e+00 2.664834040975991303e-02 5.460296345401954632e+00 1.826346756300391760e+01
1.099557428756427591e+00 2.691040686988342007e-02 5.550187867457670343e+00 1.903772176209836076e+01
1.117010721276370910e+00 2.716624529432886195e-02 5.640213281283587676e+00 1.984700053616339588e+01
1.134464013796314230e+00 2.741593989300347006e-02 5.730373050847453520e+00 2.069124108097630810e+01
1.151917306316257550e+00 2.765957734262238302e-02 5.820664347904113356e+00 2.157120485893162254e+01
1.169370598836200648e+00 2.789725727672249384e-02 5.911088126613256222e+00 2.248834874154687569e+01
1.186823891356144189e+00 2.812906666511060319e-02 6.001647200562945095e+00 2.344614324876924272e+01
1.204277183876087287e+00 2.835503979618889461e-02 6.092342427813235872e+00 2.445186196874304230e+01
1.221730476396030607e+00 2.857527293234813498e-02 6.183172339981580556e+00 2.550102179701898564e+01
1.239183768915973927e+00 2.878986410953580932e-02 6.274136583314460225e+00 2.659578526703432999e+01
1.256637061435917246e+00 2.899887899495199109e-02 6.365236375141407166e+00 2.774308191256679379e+01
1.274090353955860566e+00 2.920240809469895962e-02 6.456473214541991190e+00 2.894270207560906272e+01
1.291543646475803886e+00 2.940053492829849957e-02 6.547848439830625367e+00 3.019838935874184216e+01
1.308996938995747206e+00 2.959332307440809898e-02 6.639362448677720074e+00 3.151618427421045965e+01
1.326450231515690303e+00 2.978084316156955763e-02 6.731012862848699818e+00 3.289781516254891613e+01
1.343903524035633845e+00 2.996319102431748566e-02 6.822800492917990844e+00 3.434362642057601533e+01
1.361356816555576943e+00 3.014050565998600134e-02 6.914726743559702626e+00 3.584841721332792019e+01
1.378810109075520263e+00 3.031299496167421184e-02 7.006792557220128614e+00 3.739861264534187058e+01
1.396263401595463582e+00 3.048094894771259319e-02 7.098998924995400195e+00 3.897334747177692549e+01
1.413716694115406902e+00 3.064466825019400084e-02 7.191346834342795091e+00 4.056368647300920571e+01
1.431169986635350000e+00 3.080441223051089833e-02 7.283836636842925927e+00 4.217251946823825648e+01
1.448623279155293542e+00 3.096041002361830247e-02 7.376466348572050968e+00 4.380061652393882099e+01
1.466076571675236861e+00 3.111287641934980946e-02 7.469236665051380619e+00 4.544761788007785697e+01
1.483529864195180181e+00 3.126201279351864537e-02 7.562148605547390545e+00 4.711217536140216566e+01
1.500983156715123279e+00 3.140800640643339608e-02 7.655202919090251079e+00 4.879320666467858558e+01
1.518436449235066599e+00 3.155103017090139100e-02 7.748400413703314449e+00 5.049031596267203525e+01
1.535889741755009918e+00 3.169124366721973174e-02 7.841741841898549836e+00 5.220320456165574541e+01
1.553343034274953460e+00 3.182879618977416808e-02 7.935227914492582357e+00 5.393091155931742264e+01
1.570796326794896558e+00 3.196382731619033801e-02 8.028859376599216446e+00 5.567263359431908043e+01
1.588249619314839878e+00 3.209646722579793943e-02 8.122636839123392960e+00 5.742768326907463461e+01
1.605702911834782975e+00 3.222683828209053220e-02 8.216559838772147017e+00 5.919442311788741762e+01
1.623156204354726295e+00 3.235505552331602308e-02 8.310627789711325875e+00 6.097181000966080688e+01
1.640609496874669837e+00 3.248122667739380270e-02 8.404841304647851175e+00 6.275995869122409943e+01
1.658062789394613157e+00 3.260545295933998944e-02 8.499201107331176175e+00 6.455823412642176606e+01
1.675516081914556255e+00 3.272783025883484187e-02 8.593707842804718666e+00 6.636551690463079467e+01
1.692969374434499574e+00 3.284844923691990909e-02 8.688362173320227200e+00 6.818090468416207273e+01
1.710422666954442894e+00 3.296739533328597871e-02 8.783164744154914771e+00 7.000369270193351667e+01
1.727875959474386436e+00 3.308474930199849923e-02 8.878116200770719502e+00 7.183311093062441444e+01
1.745329251994329534e+00 3.320058810405073640e-02 8.973217179878979266e+00 7.366803907146140773e+01
1.762782544514272853e+00 3.331498499189972790e-02 9.068468335499604294e+00 7.550748144526701822e+01
1.780235837034215951e+00 3.342800950946628324e-02 9.163870279454163992e+00 7.735056584448766159e+01
1.797689129554159271e+00 3.353972757399071442e-02 9.259423729913059731e+00 7.919667158758281289e+01
1.815142422074102813e+00 3.365020217640690703e-02 9.355129265047859022e+00 8.104465940448321248e+01
1.832595714594046132e+00 3.375949373690590588e-02 9.450985390451418056e+00 8.289156423771903803e+01
1.850049007113989230e+00 3.386766010772688379e-02 9.546992578805694407e+00 8.473797426810908462e+01
1.867502299633932550e+00 3.397475657315716241e-02 9.643151530238498026e+00 8.658318796328723010e+01
1.884955592153875870e+00 3.408083588963695121e-02 9.739462873692243505e+00 8.842635727784573874e+01
1.902408884673818967e+00 3.418594876196368038e-02 9.835927289089445580e+00 9.026648733202863184e+01
1.919862177193762509e+00 3.429014415533016696e-02 9.932545461662749986e+00 9.210238192889268305e+01
1.937315469713705829e+00 3.439346930074565351e-02 1.002931809324940815e+01 9.393294352508593192e+01
1.954768762233649149e+00 3.449596969503582883e-02 1.012624593654050820e+01 9.575721011233218860e+01
1.972222054753592246e+00 3.459768910084320276e-02 1.022332969365578137e+01 9.757422873347802295e+01
1.989675347273535566e+00 3.469866965332036451e-02 1.032057028530564224e+01 9.938333036294508815e+01
2.007128639793478886e+00 3.479895226731936214e-02 1.041796838066919406e+01 1.011830702623115883e+02
2.024581932313422428e+00 3.489857673451581682e-02 1.051552204283791880e+01 1.029694525614747818e+02
2.042035224833365525e+00 3.499758172340892981e-02 1.061323164278614684e+01 1.047436729773352084e+02
2.059488517353308623e+00 3.509600477932147550e-02 1.071109808166411526e+01 1.065052305078297223e+02
2.076941809873252165e+00 3.519388232439980835e-02 1.080912218969698557e+01 1.082530789278942365e+02
2.094395102393195263e+00 3.529124970453608595e-02 1.090730495725742166e+01 1.099864642378489634e+02
2.111848394913138804e+00 3.538814148342740024e-02 1.100564725801184629e+01 1.117040769639015423e+02
2.129301687433081902e+00 3.548459155624288097e-02 1.110415042646096673e+01 1.134052020919306472e+02
2.146754979953025444e+00 3.558063314986847220e-02 1.120281526012104933e+01 1.150880428404251177e+02
2.164208272472968542e+00 3.567629882290695997e-02 1.130163871495909689e+01 1.167468902554370658e+02
2.181661564992911639e+00 3.577162046567795850e-02 1.140062157273320764e+01 1.183850876743054954e+02
2.199114857512855181e+00 3.586662930121740922e-02 1.149976540259510038e+01 1.200026058684951238e+02
2.216568150032798723e+00 3.596135599917216902e-02 1.159907128916515440e+01 1.215978264448684740e+02
2.234021442552741821e+00 3.605583089330841734e-02 1.169854095812678096e+01 1.231702884748132050e+02
2.251474735072684918e+00 3.615008400599436372e-02 1.179817505299388181e+01 1.247174187663616891e+02
2.268928027592628460e+00 3.624414504820025473e-02 1.189797039759458919e+01 1.262331383994135194e+02
2.286381320112572002e+00 3.633804341949836703e-02 1.199792791365254097e+01 1.277213923427445934e+02
2.303834612632515100e+00 3.643180820806299347e-02 1.209805008819845007e+01 1.291831508542103109e+02
2.321287905152458197e+00 3.652546819327871092e-02 1.219833823079251722e+01 1.306159381813772029e+02
2.338741197672401295e+00 3.661905196790921774e-02 1.229879209022696962e+01 1.320165954753537676e+02
2.356194490192344837e+00 3.671258810998696137e-02 1.239940991221282651e+01 1.333817700370608179e+02
2.373647782712288379e+00 3.680610519573032646e-02 1.250019288967400222e+01 1.347140630234769958e+02
2.391101075232231477e+00 3.689963179954365569e-02 1.260114433099772313e+01 1.360151690188054658e+02
2.408554367752174574e+00 3.699319649401722893e-02 1.270226246799226999e+01 1.372771132963952994e+02
2.426007660272118116e+00 3.708682784992728410e-02 1.280353048084599266e+01 1.384779785260074334e+02
2.443460952792061214e+00 3.718055443906519153e-02 1.290492035557165806e+01 1.396005413438177811e+02
2.460914245312004311e+00 3.727440495840774609e-02 1.300639395224335004e+01 1.406284784899081615e+02
2.478367537831947853e+00 3.736840840014155757e-02 1.310790474971253516e+01 1.415473561129008431e+02
2.495820830351891395e+00 3.746259406394800151e-02 1.320941158468019516e+01 1.423619590876981533e+02
2.513274122871834493e+00 3.755699155700319147e-02 1.331087814451774065e+01 1.430767883794716226e+02
2.530727415391777591e+00 3.765163079397799983e-02 1.341226543773341717e+01 1.436859945293062424e+02
2.548180707911721132e+00 3.774654199703804391e-02 1.351353343629347847e+01 1.441861909286038497e+02
2.565634000431664674e+00 3.784175570287653251e-02 1.361464309573340614e+01 1.445770768696754089e+02
2.583087292951607772e+00 3.793730293134319614e-02 1.371555535451320651e+01 1.448569145808531573e+02
2.600540585471550870e+00 3.803321535798288161e-02 1.381623022136889745e+01 1.450226197705605671e+02
2.617993877991494411e+00 3.812952532185041876e-02 1.391662721290044047e+01 1.450719581166948160e+02
2.635447170511437509e+00 3.822626582551062746e-02 1.401670629797108170e+01 1.450043248618919165e+02
2.652900463031380607e+00 3.832347053503832451e-02 1.411642800995300462e+01 1.448195643052710295e+02
2.670353755551324149e+00 3.842117378001829592e-02 1.421575321765208244e+01 1.445174764903190123e+02
2.687807048071267690e+00 3.851941060694887009e-02 1.431464266519476602e+01 1.440973969906891341e+02
2.705260340591210788e+00 3.861821707641060336e-02 1.441305691697682079e+01 1.435584349996267974e+02
2.722713633111153886e+00 3.871763036582854395e-02 1.451095635766332670e+01 1.428998597228945471e+02
2.740166925631096984e+00 3.881768876957089609e-02 1.460830119218867473e+01 1.421212620892678160e+02
2.757620218151040525e+00 3.891843169894900617e-02 1.470505144575657042e+01 1.412225617111205338e+02
2.775073510670984067e+00 3.901989968221736271e-02 1.480116696384003205e+01 1.402040116641319969e+02
2.792526803190927165e+00 3.912213440265563391e-02 1.489660760407657847e+01 1.390664307576531087e+02
2.809980095710870263e+00 3.922517906362761597e-02 1.499133380437001861e+01 1.378113213458683788e+02
2.827433388230813804e+00 3.932907859181103416e-02 1.508530597686978680e+01 1.364394045146791541e+02
2.844886680750756902e+00 3.943387963939035817e-02 1.517848430849197072e+01 1.349514987766038985e+02
2.862339973270700000e+00 3.953963058405680908e-02 1.527082876091933095e+01 1.333488154159707335e+02
2.879793265790643542e+00 3.964638152905530094e-02 1.536229907060127964e+01 1.316329568262370060e+02
2.897246558310587083e+00 3.975418447262325794e-02 1.545285474878652998e+01 1.298057080224697870e+02
2.914699850830530625e+00 3.986309385839302555e-02 1.554245538067846510e+01 1.278690365773461366e+02
2.932153143350473723e+00 3.997316668695788389e-02 1.563106165526232338e+01 1.258267057475799362e+02
2.949606435870416821e+00 4.008446251587206854e-02 1.571863558354257329e+01 1.236832214366235689e+02
2.967059728390360362e+00 4.019704345965076364e-02 1.580513964782661063e+01 1.214422947813747129e+02
2.984513020910303460e+00 4.031097436143785129e-02 1.589053481054621386e+01 1.191050702279188727e+02
3.001966313430246558e+00 4.042632354712041853e-02 1.597477999835579787e+01 1.166716811405837859e+02
3.019419605950190100e+00 4.054316303234205277e-02 1.605783105219470031e+01 1.141411902596153567e+02
3.036872898470133197e+00 4.066156852250857323e-02 1.613964424030576339e+01 1.115181186633093802e+02
3.054326190990076295e+00 4.078161943052150545e-02 1.622018779761927831e+01 1.088231357127912560e+02
3.071779483510019837e+00 4.090339952281998870e-02 1.629942730763550429e+01 1.060566311804495570e+02
3.089232776029963379e+00 4.102699773436255942e-02 1.637731119022423698e+01 1.031995985976892598e+02
3.106686068549906921e+00 4.115250822072120951e-02 1.645380215665500501e+01 1.002758625942069983e+02
3.124139361069850018e+00 4.128003037421359295e-02 1.652887082773041527e+01 9.730076958658669639e+01
3.141592653589793116e+00 4.140966961149267905e-02 1.660247614176859088e+01 9.426393550861341453e+01
3.159045946109736214e+00 4.154153850056579306e-02 1.667456650326615275e+01 9.115687069822011779e+01
3.176499238629679756e+00 4.167575684755740750e-02 1.674511428018472614e+01 8.801558156488552243e+01
3.193952531149622853e+00 4.181245190965409558e-02 1.681412788143936865e+01 8.488993671427748211e+01
3.211405823669565951e+00 4.195176008206180640e-02 1.688163118923389661e+01 8.180180146972689670e+01
3.228859116189509493e+00 4.209382770077296776e-02 1.694764840883754431e+01 7.875381011673738385e+01
3.246312408709452590e+00 4.223881116450626388e-02 1.701220400488227824e+01 7.574884343983326573e+01
3.263765701229396576e+00 4.238687865027351148e-02 1.707532202262547827e+01 7.278846350434294266e+01
3.281218993749339674e+00 4.253821141601622086e-02 1.713702364780414911e+01 6.987133319115747554e+01
3.298672286269282772e+00 4.269300428341647746e-02 1.719732883473638196e+01 6.699844427793919976e+01
3.316125578789226314e+00 4.285146904380156968e-02 1.725626159959324113e+01 6.417573249004317404e+01
3.333578871309169411e+00 4.301383601786430005e-02 1.731384694322828821e+01 6.140558026814152015e+01
3.351032163829112509e+00 4.318035424454014920e-02 1.737010947832393271e+01 5.868945482117318591e+01
3.368485456349056051e+00 4.335129179359255985e-02 1.742507428143050063e+01 5.603015734725813957e+01
3.385938748868999149e+00 4.352694154496254686e-02 1.747876438845732849e+01 5.342659032498478666e+01
3.403392041388942246e+00 4.370763991175029978e-02 1.753119762873794230e+01 5.087027149250917546e+01
3.420845333908885788e+00 4.389375245727786257e-02 1.758239814155603398e+01 4.837007622821460018e+01
3.438298626428828886e+00 4.408561599697986833e-02 1.763239258724679814e+01 4.594524290391191101e+01
