# angles(rad), pulling distance(m),                                     elastic band force(n), cable force(n)
0.000000000000000000e+00 2.073464467015621231e-04 6.931389096225297475e-02 1.158547820991161215e-01
1.745329251994329547e-02 4.173374234163462477e-04 1.388886313763597891e-01 2.300846594852872795e-01
3.490658503988659095e-02 6.301197760323314426e-04 2.086897239049353148e-01 3.422927359568291861e-01
5.235987755982988295e-02 8.458414086985172574e-04 2.786823679789535158e-01 4.521038421269320540e-01
6.981317007977318190e-02 1.064616808520473445e-03 3.488314597977472675e-01 5.592541511191473358e-01
8.726646259971647390e-02 1.286440915704011121e-03 4.191015923290084544e-01 6.638215478684370563e-01
1.047197551196597659e-01 1.511221092455761889e-03 4.894570553087880249e-01 7.659923181971856065e-01
1.221730476396030718e-01 1.738862813356387323e-03 5.598619216095004347e-01 8.657684448577828151e-01
1.396263401595463638e-01 1.969277547677067506e-03 6.302803927119413618e-01 9.631194322592729895e-01
1.570796326794896558e-01 2.202378590391927248e-03 7.006768850732927323e-01 1.058021757718484945e+00
1.745329251994329478e-01 2.438080350511094563e-03 7.710160301271223871e-01 1.150449796270514025e+00
1.919862177193762398e-01 2.676297637097305258e-03 8.412626742833837490e-01 1.240377652042117695e+00
2.094395102393195318e-01 2.916945194004674086e-03 9.113818789284164890e-01 1.327779373695345155e+00
2.268928027592628516e-01 3.159937687392785736e-03 9.813389144478853465e-01 1.412627203775720597e+00
2.443460952792061436e-01 3.405189560668610369e-03 1.051099065216536399e+00 1.494888260849864592e+00
2.617993877991494078e-01 3.652614862104060656e-03 1.120627395981699248e+00 1.574522730704762452e+00
2.792526803190927276e-01 3.902127234799039179e-03 1.189888737575646394e+00 1.651487046952279103e+00
2.967059728390360474e-01 4.153639916681438858e-03 1.258847631971885761e+00 1.725732878843351692e+00
3.141592653589793116e-01 4.407065740507143392e-03 1.327468229050793758e+00 1.797205610415517407e+00
3.316125578789225758e-01 4.662317133860024651e-03 1.395714404539002862e+00 1.865850151342855590e+00
3.490658503988658956e-01 4.919306119151947015e-03 1.463550719984508808e+00 1.931637034921732443e+00
3.665191429188092154e-01 5.177944113484610894e-03 1.530942789321100284e+00 1.994552325432505713e+00
3.839724354387524796e-01 5.438141747903744647e-03 1.597856605782707273e+00 2.054566789010129568e+00
4.014257279586957439e-01 5.699811146488124522e-03 1.664257669520079919e+00 2.111604952414386283e+00
4.188790204786390636e-01 5.962866546156369955e-03 1.730107752918996766e+00 2.165470466725061716e+00
4.363323129985823834e-01 6.227224296666943569e-03 1.795367797816728173e+00 2.216045923888553482e+00
4.537856055185257032e-01 6.492801244625204943e-03 1.860009335157616572e+00 2.263635150139013508e+00
4.712388980384689674e-01 6.759505839637387249e-03 1.923999978749069806e+00 2.308134153153067025e+00
4.886921905584122872e-01 7.027240495145832891e-03 1.987303622525918634e+00 2.349407482529918489e+00
5.061454830783556069e-01 7.295928091627786223e-03 2.049938208709398246e+00 2.389336781551818056e+00
5.235987755982988157e-01 7.565495695662094976e-03 2.111944225050888857e+00 2.428950032774617185e+00
5.410520681182421354e-01 7.835849559219719776e-03 2.173350782966620098e+00 2.468209423184239970e+00
5.585053606381854552e-01 8.106895275751979657e-03 2.234187119695159485e+00 2.507321673762055614e+00
5.759586531581287749e-01 8.378551964573341046e-03 2.294482525214740054e+00 2.546352804999219455e+00
5.934119456780720947e-01 8.650725798094938829e-03 2.354264468945283184e+00 2.585526025559957475e+00
6.108652381980153034e-01 8.923323351684572455e-03 2.413559457954491894e+00 2.624968193000055461e+00
6.283185307179586232e-01 9.196264138855742010e-03 2.472393185263777049e+00 2.664682475102596815e+00
6.457718232379019430e-01 9.469480809538230459e-03 2.530790422840978326e+00 2.704651389162518349e+00
6.632251157578451517e-01 9.742860374710150817e-03 2.588775123981132964e+00 2.745438412500105674e+00
6.806784082777884715e-01 1.001633341272542034e-02 2.646370497666248323e+00 2.786722574710291944e+00
6.981317007977317912e-01 1.028980018438245547e-02 2.703599056816198942e+00 2.828919170018964646e+00
7.155849933176750000e-01 1.056319767472557042e-02 2.760482659638335612e+00 2.871756412452719509e+00
7.330382858376184307e-01 1.083640665679903164e-02 2.817042565614953364e+00 2.915930168805157319e+00
7.504915783575616395e-01 1.110935583021494845e-02 2.873299477848145322e+00 2.961044990941784416e+00
7.679448708775049592e-01 1.138196678359354626e-02 2.929273583849269613e+00 3.007279569228495486e+00
7.853981633974482790e-01 1.165415228738273662e-02 2.984984599344862044e+00 3.054837986467551669e+00
8.028514559173914877e-01 1.192581870536361770e-02 3.040451800961457618e+00 3.103905044703375804e+00
8.203047484373349185e-01 1.219687718747108907e-02 3.095694069483096111e+00 3.154543656365356608e+00
8.377580409572781273e-01 1.246724327761388439e-02 3.150729916459776181e+00 3.206820231330486770e+00
8.552113334772214470e-01 1.273683026264514108e-02 3.205577525885563439e+00 3.260881902430645685e+00
8.726646259971647668e-01 1.300554556386915479e-02 3.260254777311176966e+00 3.316926303761085215e+00
8.901179185171079755e-01 1.327330176982090618e-02 3.314779285099812789e+00 3.375023714307489708e+00
9.075712110370514063e-01 1.354001493437320160e-02 3.369168419538252746e+00 3.435266392335909469e+00
9.250245035569946150e-01 1.380560488362478702e-02 3.423439343639112842e+00 3.497745628290678255e+00
9.424777960769379348e-01 1.406999070499132150e-02 3.477609033063200350e+00 3.562615428576088927e+00
9.599310885968812546e-01 1.433306566708805740e-02 3.531694310843551232e+00 3.630384783007607030e+00
9.773843811168245743e-01 1.459475187590692814e-02 3.585711866533165981e+00 3.700832980683204543e+00
9.948376736367677831e-01 1.485497514278605671e-02 3.639678289392716426e+00 3.774074854907745191e+00
1.012290966156711214e+00 1.511362642489487255e-02 3.693610087038464052e+00 3.850803100072119456e+00
1.029744258676654312e+00 1.537063321211675111e-02 3.747523717639821506e+00 3.930686258651883147e+00
1.047197551196597631e+00 1.562590688147820137e-02 3.801435608323293192e+00 4.014173915171713070e+00
1.064650843716540951e+00 1.587935470104112970e-02 3.855362186873884767e+00 4.101564025485990861e+00
1.082104136236484271e+00 1.613090377921595764e-02 3.909319900188755526e+00 4.192779475898183783e+00
1.099557428756427591e+00 1.638044801667898689e-02 3.963325245904814054e+00 4.288633395551375571e+00
1.117010721276370910e+00 1.662792282878173752e-02 4.017394791264469411e+00 4.388703400726865489e+00
1.134464013796314230e+00 1.687321727900130408e-02 4.071545205013911151e+00 4.494106109080497902e+00
1.151917306316257550e+00 1.711626568934076359e-02 4.125793277140047621e+00 4.604357028363640580e+00
1.169370598836200648e+00 1.735696400286773980e-02 4.180155951294499239e+00 4.720524472423143436e+00
1.186823891356144189e+00 1.759523833658307654e-02 4.234650345997810206e+00 4.842416381720053842e+00
1.204277183876087287e+00 1.783099531248083514e-02 4.289293787726588647e+00 4.970834357174945595e+00
1.221730476396030607e+00 1.806414785251743427e-02 4.344103834379259510e+00 5.106110655903605355e+00
1.239183768915973927e+00 1.829462056613620144e-02 4.399098308999739970e+00 5.248475980273036079e+00
1.256637061435917246e+00 1.852230593550165463e-02 4.454295326572564662e+00 5.399201057595013786e+00
1.274090353955860566e+00 1.874713671837359083e-02 4.509713328149810074e+00 5.557942225257604285e+00
1.291543646475803886e+00 1.896901782774076256e-02 4.565371112363976636e+00 5.726004366803907786e+00
1.308996938995747206e+00 1.918785413428672829e-02 4.621287869553829530e+00 5.904126143071739108e+00
1.326450231515690303e+00 1.940357302936296033e-02 4.677483219606378917e+00 6.092484545635569404e+00
1.343903524035633845e+00 1.961609537884105234e-02 4.733977245794759980e+00 6.292077872183870824e+00
1.361356816555576943e+00 1.982532173196216788e-02 4.790790540292387156e+00 6.504452947294739218e+00
1.378810109075520263e+00 2.003126819978149134e-02 4.847944238441288078e+00 6.726940854592793784e+00
1.396263401595463582e+00 2.023409883027105227e-02 4.905460071716744253e+00 6.955103944194068077e+00
1.413716694115406902e+00 2.043396511241026697e-02 4.963360406033284988e+00 7.189312368422423383e+00
1.431169986635350000e+00 2.063101192792517538e-02 5.021668298656864593e+00 7.429779953159560080e+00
1.448623279155293542e+00 2.082537604674794193e-02 5.080407547309420124e+00 7.676811028321677277e+00
1.466076571675236861e+00 2.101718718211006282e-02 5.139602746394881905e+00 7.930712865513778631e+00
1.483529864195180181e+00 2.120656847155229577e-02 5.199279352075649285e+00 8.191816219854619163e+00
1.500983156715123279e+00 2.139363697678685686e-02 5.259463739573585706e+00 8.460472898335845926e+00
1.518436449235066599e+00 2.157850413831539915e-02 5.320183279886973260e+00 8.737059639654665588e+00
1.535889741755009918e+00 2.176127618916825004e-02 5.381466411143503770e+00 9.021978767755715722e+00
1.553343034274953460e+00 2.194205453505450668e-02 5.443342716415012106e+00 9.315660400783027484e+00
1.570796326794896558e+00 2.212093610306469296e-02 5.505843016697347103e+00 9.618566230126880612e+00
1.588249619314839878e+00 2.229801366248775757e-02 5.568999460019179892e+00 9.931190600942004565e+00
1.605702911834782975e+00 2.247337612038067742e-02 5.632845621948985304e+00 1.025406401192654471e+01
1.623156204354726295e+00 2.264710879440515884e-02 5.697416620542756327e+00 1.058775738815114842e+01
1.640609496874669837e+00 2.281929366537401027e-02 5.762749233159969009e+00 1.093288455430802841e+01
1.658062789394613157e+00 2.299000961130074489e-02 5.828882024574498999e+00 1.129010641093024780e+01
1.675516081914556255e+00 2.315933262453830771e-02 5.895855491898296386e+00 1.166013637432965311e+01
1.692969374434499574e+00 2.332733601360338638e-02 5.963712220360861238e+00 1.204374515948451396e+01
1.710422666954442894e+00 2.349409059106028624e-02 6.032497051737325755e+00 1.244176618150170199e+01
1.727875959474386436e+00 2.365966484870605027e-02 6.102257270207398498e+00 1.285510218747295319e+01
1.745329251994329534e+00 2.382412512154877954e-02 6.173042807577279412e+00 1.328473268311735112e+01
1.762782544514272853e+00 2.398753574284628529e-02 6.244906469977770769e+00 1.373172217074165324e+01
1.780235837034215951e+00 2.414995918869880867e-02 6.317904186795584742e+00 1.419722929436360559e+01
1.797689129554159271e+00 2.431145621337574628e-02 6.392095285967213769e+00 1.468251740935712313e+01
1.815142422074102813e+00 2.447208597664120300e-02 6.467542799435118006e+00 1.518896661941234960e+01
1.832595714594046132e+00 2.463190616531310551e-02 6.544313802691554827e+00 1.571808732152716992e+01
1.850049007113989230e+00 2.479097310971191057e-02 6.622479793035901174e+00 1.627153565797568291e+01
1.867502299633932550e+00 2.494934189181629083e-02 6.702117111974505548e+00 1.685113160933460819e+01
1.884955592153875870e+00 2.510706644766960705e-02 6.783307418096246266e+00 1.745887958959582420e+01
1.902408884673818967e+00 2.526419966684213814e-02 6.866138217759108819e+00 1.809699190812969860e+01
1.919862177193762509e+00 2.542079348919881396e-02 6.950703462198378091e+00 1.876791588773135544e+01
1.937315469713705829e+00 2.557689899453674531e-02 7.037104223183514584e+00 1.947436634917455578e+01
1.954768762233649149e+00 2.573256648853888481e-02 7.125449458331406305e+00 2.021936281450188488e+01
1.972222054753592246e+00 2.588784558914341075e-02 7.215856877688830551e+00 2.100627181071361704e+01
1.989675347273535566e+00 2.604278530916775275e-02 7.308453933685930437e+00 2.183885830061612410e+01
2.007128639793478886e+00 2.619743413375625121e-02 7.403378957474404665e+00 2.272134707532758213e+01
2.024581932313422428e+00 2.635184009754721127e-02 7.500782455982153429e+00 2.365849203037628357e+01
2.042035224833365525e+00 2.650605086312672956e-02 7.600828616657786085e+00 2.465566259892465695e+01
2.059488517353308623e+00 2.666011379387907970e-02 7.703697044007479455e+00 2.571894471387763303e+01
2.076941809873252165e+00 2.681407602548390237e-02 7.809584780946433824e+00 2.685526347168847394e+01
2.094395102393195263e+00 2.696798454086417329e-02 7.918708672808463689e+00 2.807253083961733964e+01
2.111848394913138804e+00 2.712188624198840631e-02 8.031308143283927947e+00 2.937982613424993161e+01
2.129301687433081902e+00 2.727582801909643126e-02 8.147648472982920609e+00 3.078761748193761250e+01
2.146754979953025444e+00 2.742985682328417940e-02 8.268024694921711770e+00 3.230803423164115173e+01
2.164208272472968542e+00 2.758401973993291831e-02 8.392766247969872140e+00 3.395520527570752023e+01
2.181661564992911639e+00 2.773836405875301087e-02 8.522242579057198952e+00 3.574568569182958555e+01
2.199114857512855181e+00 2.789293734607333972e-02 8.656869935372956348e+00 3.769899487721399112e+01
2.216568150032798723e+00 2.804778752166999650e-02 8.797118979722863941e+00 3.983810561352732549e+01
2.234021442552741821e+00 2.820296293279908606e-02 8.943526792620321686e+00 4.219103361060422230e+01
2.251474735072684918e+00 2.835851242931223051e-02 9.095757314405686245e+00 4.450840128203240909e+01
2.268928027592628460e+00 2.851448544461554491e-02 9.253400482974804220e+00 4.676242776157222636e+01
2.286381320112572002e+00 2.867093207738651353e-02 9.416055785985170345e+00 4.894868556468311027e+01
2.303834612632515100e+00 2.882790317333794664e-02 9.583326340893247419e+00 5.106062059356454341e+01
2.321287905152458197e+00 2.898545041146823042e-02 9.754807737298705206e+00 5.308782535037116901e+01
2.338741197672401295e+00 2.914362639644516376e-02 9.930095961671833393e+00 5.502190769446030316e+01
2.356194490192344837e+00 2.930248475129363164e-02 1.010878840804849155e+01 5.685455235455591350e+01
2.373647782712288379e+00 2.946208021366898688e-02 1.029048025999507132e+01 5.857611450947378984e+01
2.391101075232231477e+00 2.962246873866424338e-02 1.047477940009786046e+01 6.018176288676281871e+01
2.408554367752174574e+00 2.978370760800563843e-02 1.066127044044042727e+01 6.165484240656136450e+01
2.426007660272118116e+00 2.994585554218794077e-02 1.084954716922937834e+01 6.298930850291702654e+01
2.443460952792061214e+00 3.010897281875921441e-02 1.103921483054627650e+01 6.418026660620644464e+01
2.460914245312004311e+00 3.027312139826801585e-02 1.122985870889717930e+01 6.521237722565966521e+01
2.478367537831947853e+00 3.043836505945085244e-02 1.142108112331968250e+01 6.608322195488048578e+01
2.495820830351891395e+00 3.060476954094898047e-02 1.161249361783621481e+01 6.678835662765284553e+01
2.513274122871834493e+00 3.077240269177993967e-02 1.180366855591071307e+01 6.730666321196927981e+01
2.530727415391777591e+00 3.094133463208794885e-02 1.199423325355935610e+01 6.765083705675937154e+01
2.548180707911721132e+00 3.111163792520326571e-02 1.218370223511989003e+01 6.777419308509372797e+01
2.565634000431664674e+00 3.128338776253550974e-02 1.237178153443710826e+01 6.774026800972501405e+01
2.583087292951607772e+00 3.145666216155217076e-02 1.255804581371000062e+01 6.749743083344267802e+01
2.600540585471550870e+00 3.163154217804554219e-02 1.274206909788701481e+01 6.704131923193604337e+01
2.617993877991494411e+00 3.180811213481263972e-02 1.292342191259115936e+01 6.636743255674670650e+01
2.635447170511437509e+00 3.198645986841276018e-02 1.310169490115235469e+01 6.548102008636314508e+01
2.652900463031380607e+00 3.216667699594671220e-02 1.327650304666255821e+01 6.439013062203095217e+01
2.670353755551324149e+00 3.234885920371974311e-02 1.344745612923367872e+01 6.309299097133771994e+01
2.687807048071267690e+00 3.253310656095341480e-02 1.361414034296779185e+01 6.158194920146066664e+01
2.705260340591210788e+00 3.271952385847821942e-02 1.377617788570159618e+01 5.987260952986039797e+01
2.722713633111153886e+00 3.290822098560088754e-02 1.393316044728600822e+01 5.795698247593644226e+01
2.740166925631096984e+00 3.309931330868884358e-02 1.408472287175955096e+01 5.585558624192577781e+01
2.757620218151040525e+00 3.329292221727531836e-02 1.423044611846334462e+01 5.355401323125678914e+01
2.775073510670984067e+00 3.348917519338156373e-02 1.437034795336824189e+01 5.122057475983690011e+01
2.792526803190927165e+00 3.368820778695900270e-02 1.450453168765553436e+01 4.889330413062904057e+01
2.809980095710870263e+00 3.389016088928997750e-02 1.463310407662476642e+01 4.658044683274251696e+01
2.827433388230813804e+00 3.409517359259617297e-02 1.475617196520026830e+01 4.429020489774015346e+01
2.844886680750756902e+00 3.430322776703018106e-02 1.487384210271016904e+01 4.206132970625885292e+01
2.862339973270700000e+00 3.451430735921909992e-02 1.498622132061511714e+01 3.989347842433407720e+01
2.879793265790643542e+00 3.472838930602702850e-02 1.509341731430487954e+01 3.778819025391275943e+01
2.897246558310587083e+00 3.494545073966498494e-02 1.519555021382671356e+01 3.574945528454220778e+01
2.914699850830530625e+00 3.516545323597525252e-02 1.529286294838444782e+01 3.382212333229907841e+01
2.932153143350473723e+00 3.538836239910575499e-02 1.538579680526290439e+01 3.207273801984052852e+01
2.949606435870416821e+00 3.561415425077947561e-02 1.547475366602076008e+01 3.048350719758337135e+01
2.967059728390360362e+00 3.584280312534109808e-02 1.556008479410867729e+01 2.903490321504139615e+01
2.984513020910303460e+00 3.607428279721867220e-02 1.564209819094420340e+01 2.771002731835314137e+01
3.001966313430246558e+00 3.630856640725132339e-02 1.572106535142579453e+01 2.649455269992199646e+01
3.019419605950190100e+00 3.654562686562237012e-02 1.579722683464693311e+01 2.537623175907942041e+01
3.036872898470133197e+00 3.678543710863551447e-02 1.587079681088160399e+01 2.434454278372631464e+01
3.054326190990076295e+00 3.702797056738792170e-02 1.594196680065912197e+01 2.339037302466908130e+01
3.071779483510019837e+00 3.727320114791523448e-02 1.601090877650731414e+01 2.250583275144680684e+01
3.089232776029963379e+00 3.752110461564042015e-02 1.607777775227870620e+01 2.168393489692415343e+01
3.106686068549906921e+00 3.777165381941098576e-02 1.614271395978011014e+01 2.091897734163150702e+01
3.124139361069850018e+00 3.802480502376653221e-02 1.620584468477251505e+01 2.020702857544268483e+01
3.141592653589793116e+00 3.828053157706573506e-02 1.626728581335159163e+01 1.954197533256040842e+01
3.159045946109736214e+00 3.853881968726885487e-02 1.632714317602108878e+01 1.891879052572985032e+01
3.176499238629679756e+00 3.879964375696919737e-02 1.638551371864624073e+01 1.833479801247021612e+01
3.193952531149622853e+00 3.906296256227433095e-02 1.644248644384213520e+01 1.778781543188162217e+01
3.211405823669565951e+00 3.932875705234408631e-02 1.649814327981728113e+01 1.727339144950395067e+01
3.228859116189509493e+00 3.959700398228629264e-02 1.655255986453979133e+01 1.678926533170740143e+01
3.246312408709452590e+00 3.986766448067417118e-02 1.660580610564418436e+01 1.633405614968654973e+01
3.263765701229396576e+00 4.014071025142786769e-02 1.665794686182809059e+01 1.590498808037877332e+01
3.281218993749339674e+00 4.041612010117071746e-02 1.670904232164359016e+01 1.549973977506888367e+01
3.298672286269282772e+00 4.069386962321771412e-02 1.675914856591472102e+01 1.511682154538207534e+01
3.316125578789226314e+00 4.097393157159858607e-02 1.680831783022699355e+01 1.475481811822515965e+01
3.333578871309169411e+00 4.125627698672483523e-02 1.685659898583908500e+01 1.441241888702200491e+01
3.351032163829112509e+00 4.154087617076742539e-02 1.690403770542272355e+01 1.408833808214211381e+01
3.368485456349056051e+00 4.182770069461357043e-02 1.695067687317845895e+01 1.378134358353360334e+01
3.385938748868999149e+00 4.211672365575894195e-02 1.699655672700134446e+01 1.349026968371173751e+01
3.403392041388942246e+00 4.240791903413330954e-02 1.704171512139618017e+01 1.321409180517761328e+01
3.420845333908885788e+00 4.270126050758470820e-02 1.708618776130991535e+01 1.295193391624321855e+01
3.438298626428828886e+00 4.299672132463800561e-02 1.713000827434109752e+01 1.270296613771703420e+01
