# angles(rad), pulling distance(m),                                     elastic band force(n), cable force(n)
0.000000000000000000e+00 2.151351906478073887e-04 7.390756619812262340e-02 1.269510656271972959e-01
1.745329251994329547e-02 4.332719322496241150e-04 1.481424286462349471e-01 2.520742891024955745e-01
3.490658503988659095e-02 6.543418299308949651e-04 2.226888831006784142e-01 3.754619433874651913e-01
5.235987755982988295e-02 8.782756754929305553e-04 2.975309133584927435e-01 4.971963385955135428e-01
6.981317007977318190e-02 1.104999683924904079e-03 3.726521912574164985e-01 6.173609273384613738e-01
8.726646259971647390e-02 1.334429274945224181e-03 4.480360766758864077e-01 7.360580672543780567e-01
1.047197551196597659e-01 1.566472877487446163e-03 5.236656175330378638e-01 8.533868157277474387e-01
1.221730476396030718e-01 1.801042968422381227e-03 5.995235497887048126e-01 9.694035723881642141e-01
1.396263401595463638e-01 2.038057505800299450e-03 6.755922974434195316e-01 1.084141516386166293e+00
1.570796326794896558e-01 2.277436011806752061e-03 7.518539725384129069e-01 1.197635584104172590e+00
1.745329251994329478e-01 2.519096652592591693e-03 8.282904388932785800e-01 1.309927716376248386e+00
1.919862177193762398e-01 2.762956175863645267e-03 9.048835670566310885e-01 1.421061234246804528e+00
2.094395102393195318e-01 3.008930402130047949e-03 9.816152980437695685e-01 1.531075879892757952e+00
2.268928027592628516e-01 3.256935014292886184e-03 1.058467643336678865e+00 1.640004193826666734e+00
2.443460952792061436e-01 3.506885628965740551e-03 1.135422684884027866e+00 1.747875275350188495e+00
2.617993877991494078e-01 3.758697796474683162e-03 1.212462575101170836e+00 1.854715453233051869e+00
2.792526803190927276e-01 4.012287000858276789e-03 1.289569536870147859e+00 1.960548541874692630e+00
2.967059728390360474e-01 4.267568659867578343e-03 1.366725863539682617e+00 2.065396072796744420e+00
3.141592653589793116e-01 4.524458124966135829e-03 1.443913918925185058e+00 2.169277504298105175e+00
3.316125578789225758e-01 4.782870681329990520e-03 1.521116133538461312e+00 2.272210295149177384e+00
3.490658503988658956e-01 5.042720876526950516e-03 1.598314906904497068e+00 2.374213153316116376e+00
3.665191429188092154e-01 5.303920818881001364e-03 1.675492503366897479e+00 2.475316095693272711e+00
3.839724354387524796e-01 5.566383440740778343e-03 1.752631047013631926e+00 2.575517335739186287e+00
4.014257279586957439e-01 5.830023482126866358e-03 1.829712522213468251e+00 2.674801211195488193e+00
4.188790204786390636e-01 6.094757609075972075e-03 1.906718881550243827e+00 2.773149820897485185e+00
4.363323129985823834e-01 6.360507557668424079e-03 1.983632283855361944e+00 2.870516225528268794e+00
4.537856055185257032e-01 6.627202386526016495e-03 2.060435125988186567e+00 2.966823061100610559e+00
4.712388980384689674e-01 6.894756519619325147e-03 2.137109918045731582e+00 3.062229999510559075e+00
4.886921905584122872e-01 7.163063571755369507e-03 2.213638570650951376e+00 3.156957221552361137e+00
5.061454830783556069e-01 7.432043434611898709e-03 2.290002142363108284e+00 3.250666071471189245e+00
5.235987755982988157e-01 7.701618254710080637e-03 2.366181295351858616e+00 3.343296062148505943e+00
5.410520681182421354e-01 7.971704644754887964e-03 2.442157902069182818e+00 3.434954098137506850e+00
5.585053606381854552e-01 8.242220348328463050e-03 2.517915346269936183e+00 3.525688690663840053e+00
5.759586531581287749e-01 8.513087449513706551e-03 2.593437367474828559e+00 3.615456269937440403e+00
5.934119456780720947e-01 8.784215410101927843e-03 2.668706935684542536e+00 3.704384053408666500e+00
6.108652381980153034e-01 9.055503853806661993e-03 2.743706191565791208e+00 3.792567053614928518e+00
6.283185307179586232e-01 9.326893761859599008e-03 2.818416415383602658e+00 3.879372720890397641e+00
6.457718232379019430e-01 9.598283198022158555e-03 2.892818435429908686e+00 3.965363174531569612e+00
6.632251157578451517e-01 9.869601739222568990e-03 2.966894249656225835e+00 4.050130637852818793e+00
6.806784082777884715e-01 1.014074712545187835e-02 3.040626942994096638e+00 4.134195625830235699e+00
6.981317007977317912e-01 1.041166142290374935e-02 3.113998474814744011e+00 4.216810266813403096e+00
7.155849933176750000e-01 1.068224101524492195e-02 3.186989632964187802e+00 4.298588491238000131e+00
7.330382858376184307e-01 1.095239785217961594e-02 3.259582443504655203e+00 4.379349666793117990e+00
7.504915783575616395e-01 1.122205503028267555e-02 3.331759515092296731e+00 4.458932759092271603e+00
7.679448708775049592e-01 1.149113088019846143e-02 3.403500447510944049e+00 4.537201976099627387e+00
7.853981633974482790e-01 1.175954074193540609e-02 3.474787998465067584e+00 4.614381992009765732e+00
8.028514559173914877e-01 1.202719905262901630e-02 3.545620009974006948e+00 4.691492610522579376e+00
8.203047484373349185e-01 1.229402070125953407e-02 3.616009924239794504e+00 4.769677233048257747e+00
8.377580409572781273e-01 1.255992204614471940e-02 3.685984780815861672e+00 4.850036702344014294e+00
8.552113334772214470e-01 1.282482159267190301e-02 3.755573229684249448e+00 4.932898509861153080e+00
8.726646259971647668e-01 1.308863910124678093e-02 3.824799928373128655e+00 5.018208867505508763e+00
8.901179185171079755e-01 1.335128512580223241e-02 3.893688942859029112e+00 5.106347877189644002e+00
9.075712110370514063e-01 1.361266609018720909e-02 3.962264547434127149e+00 5.197675497642125109e+00
9.250245035569946150e-01 1.387270718429074214e-02 4.030550400537705080e+00 5.292039966346722579e+00
9.424777960769379348e-01 1.413133296629482359e-02 4.098569506430546738e+00 5.389660518506823372e+00
9.599310885968812546e-01 1.438843802130701684e-02 4.166344485086876936e+00 5.491411060321108373e+00
9.773843811168245743e-01 1.464395275925978353e-02 4.233897602648803549e+00 5.596800106101177619e+00
9.948376736367677831e-01 1.489779065546932742e-02 4.301250762361429558e+00 5.706453486406010356e+00
1.012290966156711214e+00 1.514986169139439023e-02 4.368425540239089244e+00 5.820740456430152143e+00
1.029744258676654312e+00 1.540009515523463844e-02 4.435443238897247120e+00 5.939517317906539695e+00
1.047197551196597631e+00 1.564838828385625713e-02 4.502324917026860440e+00 6.063861847631319080e+00
1.064650843716540951e+00 1.589467866759200834e-02 4.569091423094142179e+00 6.193142127491347182e+00
1.082104136236484271e+00 1.613885759613648690e-02 4.635763426151219946e+00 6.328876024696485914e+00
1.099557428756427591e+00 1.638086481226944113e-02 4.702361451566595463e+00 6.470220030374332687e+00
1.117010721276370910e+00 1.662059263578835253e-02 4.768905910522285296e+00 6.618845050358997284e+00
1.134464013796314230e+00 1.685797947998648322e-02 4.835417133311997517e+00 6.773953866762783882e+00
1.151917306316257550e+00 1.709291937920415921e-02 4.901915398506250909e+00 6.937282071182846011e+00
1.169370598836200648e+00 1.732534807431193938e-02 4.968420965931829691e+00 7.108151069626250873e+00
1.186823891356144189e+00 1.755516377191682423e-02 5.034954105574125371e+00 7.288259855396155729e+00
1.204277183876087287e+00 1.778229552626907697e-02 5.101535130427228282e+00 7.477277632901467186e+00
1.221730476396030607e+00 1.800665266879722393e-02 5.168184425635699242e+00 7.676507322088152563e+00
1.239183768915973927e+00 1.822814915041971046e-02 5.234922481720900578e+00 7.886548527263288477e+00
1.256637061435917246e+00 1.844671718396215937e-02 5.301769924540453260e+00 8.107538786185729762e+00
1.274090353955860566e+00 1.866224543077889611e-02 5.368747549130635122e+00 8.341968237947149589e+00
1.291543646475803886e+00 1.887466573533633230e-02 5.435876351261866191e+00 8.589194633581479721e+00
1.308996938995747206e+00 1.908390634386837939e-02 5.503177562026182912e+00 8.850349737886880064e+00
1.326450231515690303e+00 1.928986896496132433e-02 5.570672681973932505e+00 9.127705281285130923e+00
1.343903524035633845e+00 1.949262773691940592e-02 5.638383516416251240e+00 9.414627271497069572e+00
1.361356816555576943e+00 1.969234062429355350e-02 5.706332213372613538e+00 9.707381516456386805e+00
1.378810109075520263e+00 1.988915691212771522e-02 5.774541299428865848e+00 1.000618873474559400e+01
1.396263401595463582e+00 2.008321767328073715e-02 5.843033722946873176e+00 1.031129472038154660e+01
1.413716694115406902e+00 2.027465651269868413e-02 5.911832890308424737e+00 1.062295356758536258e+01
1.431169986635350000e+00 2.046360012061976263e-02 5.980962715867939039e+00 1.094143680686490505e+01
1.448623279155293542e+00 2.065016880574553626e-02 6.050447658809235740e+00 1.126703042523589993e+01
1.466076571675236861e+00 2.083447697509786811e-02 6.120312780730736257e+00 1.160003922034677792e+01
1.483529864195180181e+00 2.101663357332162613e-02 6.190583784787528465e+00 1.194078453640064907e+01
1.500983156715123279e+00 2.119674248445657314e-02 6.261287079862734473e+00 1.228960924721885206e+01
1.518436449235066599e+00 2.137490290031753351e-02 6.332449826686939787e+00 1.264687561532162441e+01
1.535889741755009918e+00 2.155120965887044257e-02 6.404100004624314835e+00 1.301296979838626910e+01
1.553343034274953460e+00 2.172575355563447635e-02 6.476266471800115276e+00 1.338830175170011749e+01
1.570796326794896558e+00 2.189862163076452053e-02 6.548979030556548508e+00 1.377330725166450875e+01
1.588249619314839878e+00 2.206989743415985888e-02 6.622268506181512748e+00 1.416845160391683756e+01
1.605702911834782975e+00 2.223966127067298487e-02 6.696166814091789377e+00 1.457422874064437401e+01
1.623156204354726295e+00 2.240799042726306436e-02 6.770707051747142380e+00 1.499116739356835559e+01
1.640609496874669837e+00 2.257495938374256758e-02 6.845923582519803041e+00 1.541983110720014771e+01
1.658062789394613157e+00 2.274064000905951996e-02 6.921852128554890626e+00 1.586082159533216362e+01
1.675516081914556255e+00 2.290510174541492486e-02 6.998529881086966498e+00 1.631478404042430341e+01
1.692969374434499574e+00 2.306841177923056596e-02 7.075995604376688064e+00 1.678240781294335804e+01
1.710422666954442894e+00 2.323063520052269862e-02 7.154289756517318466e+00 1.726443216994598373e+01
1.727875959474386436e+00 2.339183515195748450e-02 7.233454624587369430e+00 1.776165178554121837e+01
1.745329251994329534e+00 2.355207296977539569e-02 7.313534460935203541e+00 1.827491945195735212e+01
1.762782544514272853e+00 2.371140831835002322e-02 7.394575635343962894e+00 1.880515212423165394e+01
1.780235837034215951e+00 2.386989931461801911e-02 7.476626807243191841e+00 1.935333885939410337e+01
1.797689129554159271e+00 2.402760264489971903e-02 7.559739106663086794e+00 1.992054635266537943e+01
1.815142422074102813e+00 2.418457367688833445e-02 7.643966331957549265e+00 2.050792640618465512e+01
1.832595714594046132e+00 2.434086656876566224e-02 7.729365168424330967e+00 2.111672463416909551e+01
1.850049007113989230e+00 2.449653436948974819e-02 7.815995430698770008e+00 2.174829126343821883e+01
1.867502299633932550e+00 2.465162911370006454e-02 7.903920326995894641e+00 2.240409172568282514e+01
1.884955592153875870e+00 2.480620191615329900e-02 7.993206749846500259e+00 2.308571839522117841e+01
1.902408884673818967e+00 2.496030306229089779e-02 8.083925597901565396e+00 2.379490472282611790e+01
1.919862177193762509e+00 2.511398209162959624e-02 8.176152132547018780e+00 2.453354179694047232e+01
1.937315469713705829e+00 2.526728788005634663e-02 8.269966373757080547e+00 2.530369623184340000e+01
1.954768762233649149e+00 2.542026872337503629e-02 8.365453540442379321e+00 2.610763018707856631e+01
1.972222054753592246e+00 2.557297241352126174e-02 8.462704541482215959e+00 2.694782579829672642e+01
1.989675347273535566e+00 2.572544631274450294e-02 8.561816524790259564e+00 2.782701238751381112e+01
2.007128639793478886e+00 2.587773743146903199e-02 8.662893492651434713e+00 2.874819669311642301e+01
2.024581932313422428e+00 2.602989250076916117e-02 8.766046994189089503e+00 2.971469982083175054e+01
2.042035224833365525e+00 2.618195804184455730e-02 8.871396903049284077e+00 3.073019859033885481e+01
2.059488517353308623e+00 2.633398044006806521e-02 8.979072295161454775e+00 3.179877246652816680e+01
2.076941809873252165e+00 2.648600601630817300e-02 9.089212512579894820e+00 3.292498101493348628e+01
2.094395102393195263e+00 2.663808109456659162e-02 9.201968086788781420e+00 3.411384716549618190e+01
2.111848394913138804e+00 2.679025207438364559e-02 9.317500680839319926e+00 3.537057542177933556e+01
2.129301687433081902e+00 2.694256550328795116e-02 9.435988733360140657e+00 3.670234255335016371e+01
2.146754979953025444e+00 2.709506814528312574e-02 9.557483873793939821e+00 3.807107307285607334e+01
2.164208272472968542e+00 2.724780705375585976e-02 9.682073895224673876e+00 3.948862166693233888e+01
2.181661564992911639e+00 2.740082964737788895e-02 9.809829040356083496e+00 4.095003564834927090e+01
2.199114857512855181e+00 2.755418378222378173e-02 9.940799969216069343e+00 4.244932185519230927e+01
2.216568150032798723e+00 2.770791782739919634e-02 1.007506190465189633e+01 4.399472183961787408e+01
2.234021442552741821e+00 2.786208074669933171e-02 1.021268452244839153e+01 4.558477437667044541e+01
2.251474735072684918e+00 2.801672217750619809e-02 1.035369971062651473e+01 4.720691296684991300e+01
2.268928027592628460e+00 2.817189251206005107e-02 1.049793197375250209e+01 4.878962499727973778e+01
2.286381320112572002e+00 2.832764298652323126e-02 1.064511104872086023e+01 5.029639885484192519e+01
2.303834612632515100e+00 2.848402577061960247e-02 1.079496538102313963e+01 5.172156061636977853e+01
2.321287905152458197e+00 2.864109405871299863e-02 1.094727437417560090e+01 5.307781595935414742e+01
2.338741197672401295e+00 2.879890216754799406e-02 1.110181918102371412e+01 5.436122749522326103e+01
2.356194490192344837e+00 2.895750564083872380e-02 1.125827236200207615e+01 5.552818254261312347e+01
2.373647782712288379e+00 2.911696135517507014e-02 1.141647355535854125e+01 5.663327112161585575e+01
2.391101075232231477e+00 2.927732763145187919e-02 1.157608533169500120e+01 5.760810769294725020e+01
2.408554367752174574e+00 2.943866435496731923e-02 1.173690541768057116e+01 5.849660565020803205e+01
2.426007660272118116e+00 2.960103310311180264e-02 1.189869697756484079e+01 5.928199750845532634e+01
2.443460952792061214e+00 2.976449727803641768e-02 1.206119771573703581e+01 5.995055286431875174e+01
2.460914245312004311e+00 2.992912224781225580e-02 1.222414667302975033e+01 6.049847592609104652e+01
2.478367537831947853e+00 3.009497549747041853e-02 1.238729402634896282e+01 6.092597640839327511e+01
2.495820830351891395e+00 3.026212679180120824e-02 1.255036920301205150e+01 6.122159218575709616e+01
2.513274122871834493e+00 3.043064834786671918e-02 1.271314595450919960e+01 6.139880998308754556e+01
2.530727415391777591e+00 3.060061501928205627e-02 1.287539882869427110e+01 6.145529734855441006e+01
2.548180707911721132e+00 3.077210449425605773e-02 1.303686404448817804e+01 6.137403087093969845e+01
2.565634000431664674e+00 3.094519750873906891e-02 1.319727712041272660e+01 6.115254919550395840e+01
2.583087292951607772e+00 3.111997807616865078e-02 1.335638293047611569e+01 6.079274592486984830e+01
2.600540585471550870e+00 3.129653373558855672e-02 1.351393570419508272e+01 6.029707745000224861e+01
2.617993877991494411e+00 3.147495581975356949e-02 1.366968747853586130e+01 5.966408501026227640e+01
2.635447170511437509e+00 3.165533974516454574e-02 1.382335213536396168e+01 5.887887895928378867e+01
2.652900463031380607e+00 3.183778532715341586e-02 1.397473029158181923e+01 5.797533933462278100e+01
2.670353755551324149e+00 3.202239712118479242e-02 1.412357292601270409e+01 5.693541447105879882e+01
2.687807048071267690e+00 3.220928479914537956e-02 1.426960708719793303e+01 5.575140437726455644e+01
2.705260340591210788e+00 3.239856354393561705e-02 1.441259194809955702e+01 5.443776735773259645e+01
2.722713633111153886e+00 3.259035453218914191e-02 1.455227083016081302e+01 5.299114779894055260e+01
2.740166925631096984e+00 3.278478532897641934e-02 1.468840108288916646e+01 5.142024269377270684e+01
2.757620218151040525e+00 3.298199041994198666e-02 1.482073005361809770e+01 4.972518568978070874e+01
2.775073510670984067e+00 3.318211387412660363e-02 1.494900481183984198e+01 4.790992604308667779e+01
2.792526803190927165e+00 3.338528736589867901e-02 1.507297780899654960e+01 4.598636905729119917e+01
2.809980095710870263e+00 3.359155560665798290e-02 1.519240669021287360e+01 4.398185894533278173e+01
2.827433388230813804e+00 3.380090803446424846e-02 1.530720771574149452e+01 4.196949522297739321e+01
2.844886680750756902e+00 3.401331767027273439e-02 1.541746950839672436e+01 4.001602421972818036e+01
2.862339973270700000e+00 3.422873821323107330e-02 1.552328106096367044e+01 3.812409084660263403e+01
2.879793265790643542e+00 3.444714977251923244e-02 1.562473236996138404e+01 3.628813321139723769e+01
2.897246558310587083e+00 3.466852929087381463e-02 1.572191251608827045e+01 3.450765832050564796e+01
2.914699850830530625e+00 3.489285335654194325e-02 1.581493482602254552e+01 3.279054711751324191e+01
2.932153143350473723e+00 3.512009721266863560e-02 1.590416619868840264e+01 3.122527942457709571e+01
2.949606435870416821e+00 3.535023526195434779e-02 1.598992876543859687e+01 2.979379849036340033e+01
2.967059728390360362e+00 3.558324118405018638e-02 1.607250635285786799e+01 2.848058080373629508e+01
2.984513020910303460e+00 3.581908818522803323e-02 1.615215044661890431e+01 2.727241343303719034e+01
3.001966313430246558e+00 3.605774925261392289e-02 1.622908494387845835e+01 2.615794240794702930e+01
3.019419605950190100e+00 3.629919743596933535e-02 1.630351007471542957e+01 2.512735555824199452e+01
3.036872898470133197e+00 3.654340617069445907e-02 1.637560562907617978e+01 2.417211585716102107e+01
3.054326190990076295e+00 3.679034954751086300e-02 1.644553366996061428e+01 2.328477008910311952e+01
3.071779483510019837e+00 3.704000288290568849e-02 1.651344080586854446e+01 2.245875199981328763e+01
3.089232776029963379e+00 3.729234232080969741e-02 1.657946010893708433e+01 2.168833399044560650e+01
3.106686068549906921e+00 3.754734723100956045e-02 1.664371274687671942e+01 2.096827171402656376e+01
3.124139361069850018e+00 3.780499234637543782e-02 1.670630937724050114e+01 2.029455655204355224e+01
3.141592653589793116e+00 3.806523248750758037e-02 1.676735134417335260e+01 1.966476235852503862e+01
3.159045946109736214e+00 3.832804720234671281e-02 1.682693171013334776e+01 1.907341356223582807e+01
3.176499238629679756e+00 3.859342063230766090e-02 1.688513614817049202e+01 1.851711116726226791e+01
3.193952531149622853e+00 3.886132497840250055e-02 1.694204371500136475e+01 1.799393139784529438e+01
3.211405823669565951e+00 3.913173112324180164e-02 1.699772753241905932e+01 1.750142100123970934e+01
3.228859116189509493e+00 3.940461076845472310e-02 1.705225538736799251e+01 1.703723463120560666e+01
3.246312408709452590e+00 3.967993713939960143e-02 1.710569024707943697e+01 1.659921197310770324e+01
3.263765701229396576e+00 3.995768548934388459e-02 1.715809070850006535e+01 1.618536834517190570e+01
3.281218993749339674e+00 4.023783199439198016e-02 1.720951142872516471e+01 1.579397665937765716e+01
3.298672286269282772e+00 4.052035251207409400e-02 1.726000347375608968e+01 1.542353241776507389e+01
3.316125578789226314e+00 4.080522182248803170e-02 1.730961462807329809e+01 1.507270055235047757e+01
3.333578871309169411e+00 4.109241298060860997e-02 1.735838971380467299e+01 1.474030314843319012e+01
3.351032163829112509e+00 4.138189818584909335e-02 1.740637080719496410e+01 1.442520529835474719e+01
3.368485456349056051e+00 4.167365064413328796e-02 1.745359750730546722e+01 1.412628740430347030e+01
3.385938748868999149e+00 4.196764479659442770e-02 1.750010711144816256e+01 1.384250413476874364e+01
3.403392041388942246e+00 4.226385582147117875e-02 1.754593482629140055e+01 1.357292656834623479e+01
3.420845333908885788e+00 4.256225864614664178e-02 1.759111391624200849e+01 1.331673919001398332e+01
3.438298626428828886e+00 4.286282783071361513e-02 1.763567587580691765e+01 1.307320104038097242e+01
