# angles(rad), pulling distance(m),                                     elastic band force(n), cable force(n)
0.000000000000000000e+00 2.325043268802737934e-04 7.007160439407739139e-02 1.055900724137591451e-01
1.745329251994329547e-02 4.677314288506709424e-04 1.401192875655587755e-01 2.086288395212460289e-01
3.490658503988659095e-02 7.055984912794323804e-04 2.101246610589786734e-01 3.092032841246674102e-01
5.235987755982988295e-02 9.460238946655573963e-04 2.800693086067845838e-01 4.073893358098808481e-01
6.981317007977318190e-02 1.188936277457288511e-03 3.499348451560124196e-01 5.032346526166470158e-01
8.726646259971647390e-02 1.434257847153013517e-03 4.197029168682864242e-01 5.968057199013483416e-01
1.047197551196597659e-01 1.681881477158434814e-03 4.893552011198193941e-01 6.882361664679891300e-01
1.221730476396030718e-01 1.931721252912752332e-03 5.588734065014124841e-01 7.775358454868521729e-01
1.396263401595463638e-01 2.183707958932551429e-03 6.282392728184551522e-01 8.646956441030860807e-01
1.570796326794896558e-01 2.437763243970777084e-03 6.974345710909252150e-01 9.497773912656003459e-01
1.745329251994329478e-01 2.693803575131518187e-03 7.664411035533892358e-01 1.032834215085431939e+00
1.919862177193762398e-01 2.951745307976896132e-03 8.352407028335491201e-01 1.113899348964094704e+00
2.094395102393195318e-01 3.211504851210990157e-03 9.038152242673254122e-01 1.193001336871731821e+00
2.268928027592628516e-01 3.472998645020155921e-03 9.721465417029919731e-01 1.270165019357417213e+00
2.443460952792061436e-01 3.736143157768670887e-03 1.040216547458697294e+00 1.345411797364052253e+00
2.617993877991494078e-01 4.000854885998737787e-03 1.108007151927370648e+00 1.418759854106041995e+00
2.792526803190927276e-01 4.267050354430481154e-03 1.175500254129984379e+00 1.490223692736094119e+00
2.967059728390360474e-01 4.534646115961950795e-03 1.242677692424612124e+00 1.559813644379180131e+00
3.141592653589793116e-01 4.803558454111749379e-03 1.309521239809249060e+00 1.627538655285084568e+00
3.316125578789225758e-01 5.073702615917751943e-03 1.376012590014706216e+00 1.693409444759522708e+00
3.490658503988658956e-01 5.344994206892537437e-03 1.442133269262466877e+00 1.757423276313248461e+00
3.665191429188092154e-01 5.617349614151587872e-03 1.507864601764199231e+00 1.819570070292059638e+00
3.839724354387524796e-01 5.890686006413290918e-03 1.573187792732270385e+00 1.879838351617970638e+00
4.014257279586957439e-01 6.164921333998937304e-03 1.638084394689931944e+00 1.938227869311421658e+00
4.188790204786390636e-01 6.439974328832722555e-03 1.702536468013720716e+00 1.994742964699509846e+00
4.363323129985823834e-01 6.715764496223365285e-03 1.766526308469624773e+00 2.049379383421116252e+00
4.537856055185257032e-01 6.992211052734840712e-03 1.830035901749236471e+00 2.102121243140847362e+00
4.712388980384689674e-01 7.269230825916514656e-03 1.893046790001357005e+00 2.152961111237784664e+00
4.886921905584122872e-01 7.546738007684460590e-03 1.955539567896434017e+00 2.201872742590448073e+00
5.061454830783556069e-01 7.824645131537653897e-03 2.017494227970058951e+00 2.248829885347130020e+00
5.235987755982988157e-01 8.102868453614360533e-03 2.078901976196833257e+00 2.294212580555018643e+00
5.410520681182421354e-01 8.381329744303826768e-03 2.139776210204401341e+00 2.338875134516815280e+00
5.585053606381854552e-01 8.659952075596057466e-03 2.200143875335988763e+00 2.383469194511389944e+00
5.759586531581287749e-01 8.938652505818163452e-03 2.260031636146053735e+00 2.428202818718857792e+00
5.934119456780720947e-01 9.217343142725665725e-03 2.319464882661711247e+00 2.473232141656013905e+00
6.108652381980153034e-01 9.495937122376183273e-03 2.378468220641171804e+00 2.518675465850767292e+00
6.283185307179586232e-01 9.774349287600007929e-03 2.437065558725052927e+00 2.564642862541369084e+00
6.457718232379019430e-01 1.005249444019456692e-02 2.495280094529342296e+00 2.611254789984634783e+00
6.632251157578451517e-01 1.033029229446438997e-02 2.553134309897160836e+00 2.658580330218960341e+00
6.806784082777884715e-01 1.060767553828550341e-02 2.610650035050865903e+00 2.706605990687212415e+00
6.981317007977317912e-01 1.088456061212021361e-02 2.667848532226124281e+00 2.755600448611543296e+00
7.155849933176750000e-01 1.116083907117186580e-02 2.724750514022995951e+00 2.805931824763896465e+00
7.330382858376184307e-01 1.143644271268197572e-02 2.781376205597215545e+00 2.857316222439034714e+00
7.504915783575616395e-01 1.171130328404041201e-02 2.837745364655388958e+00 2.909862972275026660e+00
7.679448708775049592e-01 1.198531107497358139e-02 2.893877321488552035e+00 2.964130989433869434e+00
7.853981633974482790e-01 1.225838623725188960e-02 2.949791030715903872e+00 3.019933350891964796e+00
8.028514559173914877e-01 1.253046494834179035e-02 3.005505082245042203e+00 3.077213655425603545e+00
8.203047484373349185e-01 1.280146564096273053e-02 3.061037754989466730e+00 3.136294713163811476e+00
8.377580409572781273e-01 1.307128168924806023e-02 3.116407040279266738e+00 3.197608733597073982e+00
8.552113334772214470e-01 1.333983399266196711e-02 3.171630662780012599e+00 3.260983655820755445e+00
8.726646259971647668e-01 1.360704934929525024e-02 3.226726131089321825e+00 3.326492712434721444e+00
8.901179185171079755e-01 1.387285123452275393e-02 3.281710746710381876e+00 3.394325134920089138e+00
9.075712110370514063e-01 1.413715927370728237e-02 3.336601638979365347e+00 3.464689187563134265e+00
9.250245035569946150e-01 1.439987275933913777e-02 3.391415801071114178e+00 3.538029557053866458e+00
9.424777960769379348e-01 1.466090765335254648e-02 3.446170097215796257e+00 3.614317901464326077e+00
9.599310885968812546e-01 1.492018525951489469e-02 3.500881306896806766e+00 3.693675170890555304e+00
9.773843811168245743e-01 1.517762577817818523e-02 3.555566145932646638e+00 3.776320125930010541e+00
9.948376736367677831e-01 1.543314943096859605e-02 3.610241279994533148e+00 3.862468773905699759e+00
1.012290966156711214e+00 1.568667546244483652e-02 3.664923370760301502e+00 3.952368741832338550e+00
1.029744258676654312e+00 1.593812424338194450e-02 3.719629086221006631e+00 4.046250883615634564e+00
1.047197551196597631e+00 1.618741368552501642e-02 3.774375125686717958e+00 4.144421195957725068e+00
1.064650843716540951e+00 1.643444299686549342e-02 3.829178260331643546e+00 4.247491332944306031e+00
1.082104136236484271e+00 1.667913032027239575e-02 3.884055339349953062e+00 4.355469028825503131e+00
1.099557428756427591e+00 1.692139571601367770e-02 3.939023328025635706e+00 4.468656966581106005e+00
1.117010721276370910e+00 1.716115796641794200e-02 3.994099337772383240e+00 4.587441385908779701e+00
1.134464013796314230e+00 1.739833657381325074e-02 4.049300635562896211e+00 4.712200916469396539e+00
1.151917306316257550e+00 1.763285128003767160e-02 4.104644692829162445e+00 4.843357045596618171e+00
1.169370598836200648e+00 1.786462185892198976e-02 4.160149202819389380e+00 4.981370890564494225e+00
1.186823891356144189e+00 1.809356970387087510e-02 4.215832103640045680e+00 5.126708245625509086e+00
1.204277183876087287e+00 1.831961180660476515e-02 4.271711628362475643e+00 5.280016701693478254e+00
1.221730476396030607e+00 1.854264378181247341e-02 4.327806314366263507e+00 5.442424478900376172e+00
1.239183768915973927e+00 1.876258422060046727e-02 4.384135048813289082e+00 5.614083074157725228e+00
1.256637061435917246e+00 1.897935596216001122e-02 4.440717105966649925e+00 5.795610333801139546e+00
1.274090353955860566e+00 1.919288293762580824e-02 4.497572163903997833e+00 5.987761625863531556e+00
1.291543646475803886e+00 1.940308634754166206e-02 4.554720368037161293e+00 6.191481134065920600e+00
1.308996938995747206e+00 1.960989834041776056e-02 4.612182349138540083e+00 6.407392803885552546e+00
1.326450231515690303e+00 1.981333093652305755e-02 4.669979272277380744e+00 6.633903273792141952e+00
1.343903524035633845e+00 2.001353730746104065e-02 4.728132889270880490e+00 6.866865121445178133e+00
1.361356816555576943e+00 2.021069029019375435e-02 4.786665562223944015e+00 7.105556456865492088e+00
1.378810109075520263e+00 2.040493444474006726e-02 4.845600342423697526e+00 7.350913384847841847e+00
1.396263401595463582e+00 2.059641279405388312e-02 4.904960994739011149e+00 7.602992329740833277e+00
1.413716694115406902e+00 2.078526011823898095e-02 4.964772072305319028e+00 7.862128012590789083e+00
1.431169986635350000e+00 2.097160337661796436e-02 5.025058969102567552e+00 8.128687190127653395e+00
1.448623279155293542e+00 2.115556348923396807e-02 5.085847977257447639e+00 8.403007852287096568e+00
1.466076571675236861e+00 2.133725532233476593e-02 5.147166372817519431e+00 8.685475243315631033e+00
1.483529864195180181e+00 2.151678813000887022e-02 5.209042462506593196e+00 8.976498022281708344e+00
1.500983156715123279e+00 2.169426603910018861e-02 5.271505694529183828e+00 9.276514609386195431e+00
1.518436449235066599e+00 2.186978843521665550e-02 5.334586708288504120e+00 9.585988597220000074e+00
1.535889741755009918e+00 2.204345025275402173e-02 5.398317462172176562e+00 9.905425569256095741e+00
1.553343034274953460e+00 2.221534233798843488e-02 5.462731296337270059e+00 1.023535979946016106e+01
1.570796326794896558e+00 2.238555172216209754e-02 5.527863076168408440e+00 1.057637223005097660e+01
1.588249619314839878e+00 2.255416188862315388e-02 5.593749272816253004e+00 1.092908192675997192e+01
1.605702911834782975e+00 2.272125304019128114e-02 5.660428125903152363e+00 1.129416045894446441e+01
1.623156204354726295e+00 2.288690230033378625e-02 5.727939746703908597e+00 1.167232789981619767e+01
1.640609496874669837e+00 2.305118396598605443e-02 5.796326301095149347e+00 1.206436464730817804e+01
1.658062789394613157e+00 2.321416966281458424e-02 5.865632149033009668e+00 1.247111303907806956e+01
1.675516081914556255e+00 2.337592857705072386e-02 5.935904040132325754e+00 1.289348424023298101e+01
1.692969374434499574e+00 2.353652758183957458e-02 6.007191312193721267e+00 1.333246996020405462e+01
1.710422666954442894e+00 2.369603144418993071e-02 6.079546094402099143e+00 1.378914049805356612e+01
1.727875959474386436e+00 2.385450293460303003e-02 6.153023572206651082e+00 1.426466842014153791e+01
1.745329251994329534e+00 2.401200300578833907e-02 6.227682235317886672e+00 1.476032443894504453e+01
1.762782544514272853e+00 2.416859089739398225e-02 6.303584173838585158e+00 1.527749858295867291e+01
1.780235837034215951e+00 2.432432428123544252e-02 6.380795418644884087e+00 1.581771181538878857e+01
1.797689129554159271e+00 2.447925937299682067e-02 6.459386295168807912e+00 1.638262916982641926e+01
1.815142422074102813e+00 2.463345103883837067e-02 6.539431826142918958e+00 1.697407865514986369e+01
1.832595714594046132e+00 2.478695292233404346e-02 6.621012194078631730e+00 1.759407111493198173e+01
1.850049007113989230e+00 2.493981751316885417e-02 6.704213250276789715e+00 1.824482767246867709e+01
1.867502299633932550e+00 2.509209628711867035e-02 6.789127084549308577e+00 1.892879740095840546e+01
1.884955592153875870e+00 2.524383975129256691e-02 6.875852670413945766e+00 1.964869967899269554e+01
1.902408884673818967e+00 2.539509757839702661e-02 6.964496595768279619e+00 2.040754942021743545e+01
1.919862177193762509e+00 2.554591865707942985e-02 7.055173891780749607e+00 2.120870958467311596e+01
1.937315469713705829e+00 2.569635119360251518e-02 7.148008976000516768e+00 2.205593386337753614e+01
1.954768762233649149e+00 2.584644279178783394e-02 7.243136729588449008e+00 2.295342758510911807e+01
1.972222054753592246e+00 2.599624051102924008e-02 7.340703732315002839e+00 2.390592008651955425e+01
1.989675347273535566e+00 2.614579097640756453e-02 7.440869686075463285e+00 2.491873920377196683e+01
2.007128639793478886e+00 2.629514041050345571e-02 7.543809052583541508e+00 2.599791989945748938e+01
2.024581932313422428e+00 2.644433474528801523e-02 7.649712956936947528e+00 2.715030937643604148e+01
2.042035224833365525e+00 2.659341966617037242e-02 7.758791539074941568e+00 2.838375521741647844e+01
2.059488517353308623e+00 2.674244069027516962e-02 7.871276338578398146e+00 2.970718212749136100e+01
2.076941809873252165e+00 2.689144324861268698e-02 7.987411590853936261e+00 3.112765547391326493e+01
2.094395102393195263e+00 2.704047272500922916e-02 8.107357835675770730e+00 3.262599961193807729e+01
2.111848394913138804e+00 2.718957456561953839e-02 8.231221313001334750e+00 3.418964146557091510e+01
2.129301687433081902e+00 2.733879430920780826e-02 8.359073287806232599e+00 3.581040959076218400e+01
2.146754979953025444e+00 2.748817768470066328e-02 8.490985231409764467e+00 3.748952523293718997e+01
2.164208272472968542e+00 2.763777067194562662e-02 8.627044420894518950e+00 3.923274389974461940e+01
2.181661564992911639e+00 2.778761956178846595e-02 8.767330979529024404e+00 4.103929941749187549e+01
2.199114857512855181e+00 2.793777105796138582e-02 8.911831814011925701e+00 4.288226114020758217e+01
2.216568150032798723e+00 2.808827231050602807e-02 9.060314093918817591e+00 4.469385040295786382e+01
2.234021442552741821e+00 2.823917103429610803e-02 9.212518568982433820e+00 4.646117997513382392e+01
2.251474735072684918e+00 2.839051555246960290e-02 9.368184818125911306e+00 4.817849399238810548e+01
2.268928027592628460e+00 2.854235489576948878e-02 9.527054588014367553e+00 4.984086921145653548e+01
2.286381320112572002e+00 2.869473888538220593e-02 9.688876066393929065e+00 5.144465153081130637e+01
2.303834612632515100e+00 2.884771820031982459e-02 9.853408538696713848e+00 5.298774112507464906e+01
2.321287905152458197e+00 2.900134450173716405e-02 1.002041274185386577e+01 5.446499166549054394e+01
2.338741197672401295e+00 2.915567048127775188e-02 1.018956237537751619e+01 5.584156169597371644e+01
2.356194490192344837e+00 2.931075000826457999e-02 1.036065538325913060e+01 5.715247291466096158e+01
2.373647782712288379e+00 2.946663818567485729e-02 1.053341626545156906e+01 5.836755284303013269e+01
2.391101075232231477e+00 2.962339149726835735e-02 1.070760627154470157e+01 5.949341620673544639e+01
2.408554367752174574e+00 2.978106789259065898e-02 1.088293427058173535e+01 6.050630106720892343e+01
2.426007660272118116e+00 2.993972692457530851e-02 1.105917595760458561e+01 6.142379048547737597e+01
2.443460952792061214e+00 3.009942987081058383e-02 1.123607856961241502e+01 6.223090101172460464e+01
2.460914245312004311e+00 3.026023986492348133e-02 1.141337708693861330e+01 6.291819256514570213e+01
2.478367537831947853e+00 3.042222205246642233e-02 1.159080228588982031e+01 6.347921437450994375e+01
2.495820830351891395e+00 3.058544372615927889e-02 1.176809180677529376e+01 6.391183569424345734e+01
2.513274122871834493e+00 3.074997451149267744e-02 1.194500579002753149e+01 6.422015642855650697e+01
2.530727415391777591e+00 3.091588651885033776e-02 1.212130022509672145e+01 6.439912968085850764e+01
2.548180707911721132e+00 3.108325455338345478e-02 1.229670042091173521e+01 6.443415756548557738e+01
2.565634000431664674e+00 3.125215629896804792e-02 1.247094021850763390e+01 6.432538905925724748e+01
2.583087292951607772e+00 3.142267254574383079e-02 1.264377740503835668e+01 6.407937528325656729e+01
2.600540585471550870e+00 3.159488742531042782e-02 1.281499374325152729e+01 6.370344735791957902e+01
2.617993877991494411e+00 3.176888865005780133e-02 1.298429474715715770e+01 6.316777766627595270e+01
2.635447170511437509e+00 3.194476781308339813e-02 1.315142267973695134e+01 6.248523262040951920e+01
2.652900463031380607e+00 3.212262064240044290e-02 1.331612157099188209e+01 6.165632750909562532e+01
2.670353755551324149e+00 3.230254738910315337e-02 1.347813670969665800e+01 6.068197831952869592e+01
2.687807048071267690e+00 3.248465310946845735e-02 1.363721338906941405e+01 5.956327504372478643e+01
2.705260340591210788e+00 3.266904803069193425e-02 1.379309324048326957e+01 5.830055704891638158e+01
2.722713633111153886e+00 3.285584816773057248e-02 1.394550884896496079e+01 5.689271031857219185e+01
2.740166925631096984e+00 3.304517559774330926e-02 1.409421372003777684e+01 5.535062283288565510e+01
2.757620218151040525e+00 3.323715823880031561e-02 1.423890527384165949e+01 5.365717747175532537e+01
2.775073510670984067e+00 3.343193313250013982e-02 1.437938486806751648e+01 5.185499304126649633e+01
2.792526803190927165e+00 3.362964407238366871e-02 1.451537451784867194e+01 4.991986529140606876e+01
2.809980095710870263e+00 3.383042140658072683e-02 1.464668829068134492e+01 4.789663899675521463e+01
2.827433388230813804e+00 3.403432513756381173e-02 1.477310799104256667e+01 4.579641276369039105e+01
2.844886680750756902e+00 3.424133881364357923e-02 1.489471738382472665e+01 4.374922398872982399e+01
2.862339973270700000e+00 3.445141470252190835e-02 1.501161480090826039e+01 4.176631135178652698e+01
2.879793265790643542e+00 3.466453074599840090e-02 1.512390150936301403e+01 3.984245136541342447e+01
2.897246558310587083e+00 3.488067232487464947e-02 1.523167924975524201e+01 3.797594105800833120e+01
2.914699850830530625e+00 3.509981269187315706e-02 1.533504457031749091e+01 3.616658627431311857e+01
2.932153143350473723e+00 3.532191477148055592e-02 1.543412954159847317e+01 3.442764437594404114e+01
2.949606435870416821e+00 3.554695653993618365e-02 1.552930492494900072e+01 3.283851614618478010e+01
2.967059728390360362e+00 3.577492151074278953e-02 1.562089358068303468e+01 3.137974749710284428e+01
2.984513020910303460e+00 3.600577487439111241e-02 1.570918167898306983e+01 3.003928022465361991e+01
3.001966313430246558e+00 3.623948519003543367e-02 1.579442388772268657e+01 2.880385434094820241e+01
3.019419605950190100e+00 3.647603089905580159e-02 1.587684764258227332e+01 2.766123730281923088e+01
3.036872898470133197e+00 3.671539470346846246e-02 1.595665688744026589e+01 2.660153108297867419e+01
3.054326190990076295e+00 3.695755213955424084e-02 1.603403523347931880e+01 2.561736584993942145e+01
3.071779483510019837e+00 3.720246756643760810e-02 1.610914859248237008e+01 2.470265505236760006e+01
3.089232776029963379e+00 3.745011034325539112e-02 1.618214739717476647e+01 2.385043150721690353e+01
3.106686068549906921e+00 3.770045681875762444e-02 1.625316848418687954e+01 2.305440271971550459e+01
3.124139361069850018e+00 3.795348292231372211e-02 1.632233670057020447e+01 2.230969257557721619e+01
3.141592653589793116e+00 3.820916386877125370e-02 1.638976628379845835e+01 2.161199582989965862e+01
3.159045946109736214e+00 3.846747596971540617e-02 1.645556205025776819e+01 2.095732862800647212e+01
3.176499238629679756e+00 3.872839507951912619e-02 1.651982041724646066e+01 2.034225633678657275e+01
3.193952531149622853e+00 3.899189245880176069e-02 1.658263027903661779e+01 1.976400522045291197e+01
3.211405823669565951e+00 3.925793565614909414e-02 1.664407380134170822e+01 1.922000881919112203e+01
3.228859116189509493e+00 3.952649547227612969e-02 1.670422710877116756e+01 1.870746195644844789e+01
3.246312408709452590e+00 3.979754792785770295e-02 1.676316084309092247e+01 1.822369890297285622e+01
3.263765701229396576e+00 4.007107107128814877e-02 1.682094072790516393e+01 1.776654080411909575e+01
3.281218993749339674e+00 4.034704103855888541e-02 1.687762801936238688e+01 1.733425974032835626e+01
3.298672286269282772e+00 4.062543185456092554e-02 1.693327989643416132e+01 1.692528555272786406e+01
3.316125578789226314e+00 4.090621663696003552e-02 1.698794987606969187e+01 1.653812692124529349e+01
3.333578871309169411e+00 4.118936890543086621e-02 1.704168807222198723e+01 1.617132685069198672e+01
3.351032163829112509e+00 4.147486264755639862e-02 1.709454156469425001e+01 1.582357317501378802e+01
3.368485456349056051e+00 4.176267228678774701e-02 1.714655457862953369e+01 1.549364337869586983e+01
3.385938748868999149e+00 4.205277231608549326e-02 1.719776880157950671e+01 1.518045978448069633e+01
3.403392041388942246e+00 4.234513706442787767e-02 1.724822351730274761e+01 1.488302230741687815e+01
3.420845333908885788e+00 4.263974069304617143e-02 1.729795586238926219e+01 1.460042963955307016e+01
3.438298626428828886e+00 4.293655719542466276e-02 1.734700095545123588e+01 1.433183919001486828e+01
