# angles(rad), pulling distance(m),                                     elastic band force(n), cable force(n)
0.000000000000000000e+00 2.441860494546898783e-04 7.132098517567858620e-02 1.041558872382107453e-01
1.745329251994329547e-02 4.911087453975668867e-04 1.430264238975716418e-01 2.076717256637151954e-01
3.490658503988659095e-02 7.406829814020256123e-04 2.150960264587525872e-01 3.105666151191707192e-01
5.235987755982988295e-02 9.928255234651921137e-04 2.875093111550631741e-01 4.128516638080073076e-01
6.981317007977318190e-02 1.247466846518654679e-03 3.602456042851136520e-01 5.145066314824475739e-01
8.726646259971647390e-02 1.504527815315901242e-03 4.332840401502821570e-01 6.155424669483408051e-01
1.047197551196597659e-01 1.763907252548291196e-03 5.066035610547156010e-01 7.160153245249871734e-01
1.221730476396030718e-01 2.025526710988344303e-03 5.801829173053291155e-01 8.158698480891251048e-01
1.396263401595463638e-01 2.289313110245108900e-03 6.540006672118060527e-01 9.150748072480867634e-01
1.570796326794896558e-01 2.555179595286826647e-03 7.280351770865979288e-01 1.013661565856186275e+00
1.745329251994329478e-01 2.823038405859765437e-03 8.022646212449250358e-01 1.111624007728607921e+00
1.919862177193762398e-01 3.092807728588701458e-03 8.766674722737519687e-01 1.208932110619222566e+00
2.094395102393195318e-01 3.364408695447641470e-03 9.512244621076924034e-01 1.305599780651596875e+00
2.268928027592628516e-01 3.637761058285202825e-03 1.025918878509795018e+00 1.401678242520369766e+00
2.443460952792061436e-01 3.912782861297522084e-03 1.100733198718494732e+00 1.497165044576170834e+00
2.617993877991494078e-01 4.189390441028250679e-03 1.175646812500474425e+00 1.592001769102140418e+00
2.792526803190927276e-01 4.467498426368557082e-03 1.250638524484918301e+00 1.686171001347908316e+00
2.967059728390360474e-01 4.747020575109875754e-03 1.325691302441366570e+00 1.779766208312262066e+00
3.141592653589793116e-01 5.027872590664192974e-03 1.400787230420679874e+00 1.872755243760539257e+00
3.316125578789225758e-01 5.309970840653968106e-03 1.475906974063201815e+00 1.965091125802033822e+00
3.490658503988658956e-01 5.593231827421420166e-03 1.551028572542944017e+00 2.056685373210858092e+00
3.665191429188092154e-01 5.877572188028533026e-03 1.626134798785022095e+00 2.147652338853522913e+00
3.839724354387524796e-01 6.162908694257051949e-03 1.701207765510423631e+00 2.237966597076003428e+00
4.014257279586957439e-01 6.449158252608485319e-03 1.776224531569877918e+00 2.327455471394168196e+00
4.188790204786390636e-01 6.736237904304104643e-03 1.851168906206876130e+00 2.416310163463380789e+00
4.363323129985823834e-01 7.024064867954607494e-03 1.926019489386654016e+00 2.504346364353500221e+00
4.537856055185257032e-01 7.312556960108885194e-03 2.000758631358979578e+00 2.591665204492449970e+00
4.712388980384689674e-01 7.601632834562345106e-03 2.075366935624312958e+00 2.678182814252797694e+00
4.886921905584122872e-01 7.891211943609812221e-03 2.149824913148866923e+00 2.763866764966230960e+00
5.061454830783556069e-01 8.181212857312184991e-03 2.224114401702562915e+00 2.848755186284810836e+00
5.235987755982988157e-01 8.471551040713076047e-03 2.298215680846188214e+00 2.932799256780735497e+00
5.410520681182421354e-01 8.762139332097587663e-03 2.372109161968536384e+00 3.016009398467714764e+00
5.585053606381854552e-01 9.052892419122061593e-03 2.445775226246664769e+00 3.098344318032542510e+00
5.759586531581287749e-01 9.343728671528890584e-03 2.519195721862934612e+00 3.179806453337813643e+00
5.934119456780720947e-01 9.634568721338793856e-03 2.592351249661177803e+00 3.260294172541806201e+00
6.108652381980153034e-01 9.925333975752789056e-03 2.665222219397041403e+00 3.339761624552677333e+00
6.283185307179586232e-01 1.021594139417321065e-02 2.737789632263575967e+00 3.418259445441387268e+00
6.457718232379019430e-01 1.050630157525998983e-02 2.810035562911831875e+00 3.495893163404989235e+00
6.632251157578451517e-01 1.079632725746509057e-02 2.881938761273205252e+00 3.572452840066339341e+00
6.806784082777884715e-01 1.108593680018835417e-02 2.953481792782886028e+00 3.648033123795277888e+00
6.981317007977317912e-01 1.137505409163306822e-02 3.024643661378303872e+00 3.722352504470069601e+00
7.155849933176750000e-01 1.166359757012598239e-02 3.095406674998362195e+00 3.795620435550899341e+00
7.330382858376184307e-01 1.195147713803264809e-02 3.165751935597552968e+00 3.867861247002478908e+00
7.504915783575616395e-01 1.223860565563890564e-02 3.235659929601955476e+00 3.938976470269793140e+00
7.679448708775049592e-01 1.252491119282845081e-02 3.305111090519595951e+00 4.008720970813576479e+00
7.853981633974482790e-01 1.281031732368831388e-02 3.374086241668955211e+00 4.077139264824728215e+00
8.028514559173914877e-01 1.309472339037802240e-02 3.442588788175890979e+00 4.145940016525122118e+00
8.203047484373349185e-01 1.337804473302284594e-02 3.510644343116192445e+00 4.216393419896991901e+00
8.377580409572781273e-01 1.366020490108031671e-02 3.578280158844041825e+00 4.288697074296078604e+00
8.552113334772214470e-01 1.394112652616769261e-02 3.645521648857330543e+00 4.362966138128771654e+00
8.726646259971647668e-01 1.422073121757192436e-02 3.712393477712977230e+00 4.439384404454339794e+00
8.901179185171079755e-01 1.449893455624855221e-02 3.778919911795127096e+00 4.518243160014265847e+00
9.075712110370514063e-01 1.477563718223645628e-02 3.845124573402426638e+00 4.599977508546463589e+00
9.250245035569946150e-01 1.505075785634246190e-02 3.911030522631415263e+00 4.684493084628290838e+00
9.424777960769379348e-01 1.532421758183405772e-02 3.976660346091490883e+00 4.771955285289146254e+00
9.599310885968812546e-01 1.559593504996320892e-02 4.042036183188760567e+00 4.862615217064639950e+00
9.773843811168245743e-01 1.586582920382258524e-02 4.107179756678953630e+00 4.956690659851297198e+00
9.948376736367677831e-01 1.613381839740798962e-02 4.172112420191672832e+00 5.054427163519346067e+00
1.012290966156711214e+00 1.639982081836263705e-02 4.236855193496887217e+00 5.156076293124377763e+00
1.029744258676654312e+00 1.666375439713205231e-02 4.301428795275004546e+00 5.261906260621731057e+00
1.047197551196597631e+00 1.692553712122314355e-02 4.365853681966864741e+00 5.372196155237578097e+00
1.064650843716540951e+00 1.718508665059846272e-02 4.430150075777654628e+00 5.487250826434958206e+00
1.082104136236484271e+00 1.744231592554864110e-02 4.494338002876953730e+00 5.607492384841177291e+00
1.099557428756427591e+00 1.769713444880613093e-02 4.558437320147636029e+00 5.733349293202804731e+00
1.117010721276370910e+00 1.794945954051672954e-02 4.622467749619209698e+00 5.865025020303676229e+00
1.134464013796314230e+00 1.819920909243289212e-02 4.686448907832571287e+00 6.002902242073378858e+00
1.151917306316257550e+00 1.844630072235093829e-02 4.750400335021820020e+00 6.147413436175284573e+00
1.169370598836200648e+00 1.869065231572777236e-02 4.814341528070040788e+00 6.299012353311295165e+00
1.186823891356144189e+00 1.893218195726751457e-02 4.878291965586035950e+00 6.458190877550290310e+00
1.204277183876087287e+00 1.917080801896015735e-02 4.942271143216166784e+00 6.625480073827270999e+00
1.221730476396030607e+00 1.940644960526629464e-02 5.006298597649215587e+00 6.801442826029579614e+00
1.239183768915973927e+00 1.963902572103891700e-02 5.070393941525934700e+00 6.986715772445436734e+00
1.256637061435917246e+00 1.986845815817920788e-02 5.134576890075064348e+00 7.181902621635996020e+00
1.274090353955860566e+00 2.009466645833146714e-02 5.198867293211566043e+00 7.387820736656700582e+00
1.291543646475803886e+00 2.031754881289534603e-02 5.263285167323250135e+00 7.606022513221103232e+00
1.308996938995747206e+00 2.053701697600743628e-02 5.327850724017221040e+00 7.837028457810050419e+00
1.326450231515690303e+00 2.075299637077708884e-02 5.392584407315328399e+00 8.081369325850900509e+00
1.343903524035633845e+00 2.096539788096793075e-02 5.457506921240625530e+00 8.340690910655533585e+00
1.361356816555576943e+00 2.117418406259634692e-02 5.522639269778185422e+00 8.614134876190719936e+00
1.378810109075520263e+00 2.137944131744544049e-02 5.588002788194132542e+00 8.897408362569782625e+00
1.396263401595463582e+00 2.158134150145078756e-02 5.653619181570350705e+00 9.186967858519428987e+00
1.413716694115406902e+00 2.178005399185120594e-02 5.719510564313851297e+00 9.482706873113141199e+00
1.431169986635350000e+00 2.197573508452918198e-02 5.785699496077587156e+00 9.785035025881821724e+00
1.448623279155293542e+00 2.216853422394718387e-02 5.852209029160775344e+00 1.009412415453868483e+01
1.466076571675236861e+00 2.235859210912646486e-02 5.919062747105409805e+00 1.041028503022382345e+01
1.483529864195180181e+00 2.254604182063869866e-02 5.986284813570946994e+00 1.073382381794805340e+01
1.500983156715123279e+00 2.273100958796800408e-02 6.053900021626113848e+00 1.106505515576322374e+01
1.518436449235066599e+00 2.291361516945513224e-02 6.121933840868211796e+00 1.140432118640015879e+01
1.535889741755009918e+00 2.309397238906210972e-02 6.190412477104602296e+00 1.175198323351339624e+01
1.553343034274953460e+00 2.327218955378497142e-02 6.259362926719057363e+00 1.210842650225297135e+01
1.570796326794896558e+00 2.344836990331673060e-02 6.328813036928751856e+00 1.247405752342472951e+01
1.588249619314839878e+00 2.362261193882950194e-02 6.398791575315790681e+00 1.284931275527583061e+01
1.605702911834782975e+00 2.379500978826151400e-02 6.469328295823392416e+00 1.323465470647825626e+01
1.623156204354726295e+00 2.396565352167719792e-02 6.540454013245574849e+00 1.363057624933942691e+01
1.640609496874669837e+00 2.413462941953467208e-02 6.612200686685058670e+00 1.403760564077814799e+01
1.658062789394613157e+00 2.430202027478162163e-02 6.684601502753880098e+00 1.445630357704595959e+01
1.675516081914556255e+00 2.446790559573575746e-02 6.757690966673248312e+00 1.488727294392327138e+01
1.692969374434499574e+00 2.463236188411366961e-02 6.831505005126771835e+00 1.533115510867857623e+01
1.710422666954442894e+00 2.479546279587863111e-02 6.906081073080216903e+00 1.578864170116424681e+01
1.727875959474386436e+00 2.495727938887928529e-02 6.981458268624354702e+00 1.626046919351514575e+01
1.745329251994329534e+00 2.511788025980075251e-02 7.057677459038153245e+00 1.674743290752902780e+01
1.762782544514272853e+00 2.527733175580457875e-02 7.134781419612410858e+00 1.725038394342011472e+01
1.780235837034215951e+00 2.543569810405471240e-02 7.212814982258354490e+00 1.777024146830293816e+01
1.797689129554159271e+00 2.559304157985136871e-02 7.291825197307508333e+00 1.830799383396976765e+01
1.815142422074102813e+00 2.574942264485158630e-02 7.371861510642899518e+00 1.886470774866863209e+01
1.832595714594046132e+00 2.590490006488900890e-02 7.452975957755246128e+00 1.944153768468191501e+01
1.850049007113989230e+00 2.605953106687745532e-02 7.535223376582107946e+00 2.003972893656878185e+01
1.867502299633932550e+00 2.621337140955612779e-02 7.618661641255688899e+00 2.066063736640678172e+01
1.884955592153875870e+00 2.636647555169768786e-02 7.703351919031235617e+00 2.130572709203172721e+01
1.902408884673818967e+00 2.651889670155271189e-02 7.789358953632194549e+00 2.197659792232093068e+01
1.919862177193762509e+00 2.667068696421651466e-02 7.876751378453331398e+00 2.267498555559248175e+01
1.937315469713705829e+00 2.682189741084162193e-02 7.965602063473902206e+00 2.340278782773641097e+01
1.954768762233649149e+00 2.697257817221399359e-02 8.055988500321548784e+00 2.416207912668498992e+01
1.972222054753592246e+00 2.712277855056209955e-02 8.147993230780281593e+00 2.495512758430313838e+01
1.989675347273535566e+00 2.727254706127706790e-02 8.241704325234067596e+00 2.578442987765499339e+01
2.007128639793478886e+00 2.742193156547115609e-02 8.337215917699163370e+00 2.665272322992018772e+01
2.024581932313422428e+00 2.757097930709000860e-02 8.434628805279507091e+00 2.756303244405226138e+01
2.042035224833365525e+00 2.771973701068518661e-02 8.534051121004972984e+00 2.851869531674235958e+01
2.059488517353308623e+00 2.786825096239654853e-02 8.635599095055725982e+00 2.952340782506932726e+01
2.076941809873252165e+00 2.801656705163367914e-02 8.739397917275809391e+00 3.058128134957512145e+01
2.094395102393195263e+00 2.816473088851039613e-02 8.845582717944520112e+00 3.169688560660887333e+01
2.111848394913138804e+00 2.831278783209860428e-02 8.954299664138000381e+00 3.287532793780820128e+01
2.129301687433081902e+00 2.846078308433181228e-02 9.065706752904265642e+00 3.412217560054646270e+01
2.146754979953025444e+00 2.860876176152845479e-02 9.179968805547897404e+00 3.544166290703301314e+01
2.164208272472968542e+00 2.875676893435508141e-02 9.297199204142527762e+00 3.681964690292442555e+01
2.181661564992911639e+00 2.890484974077141625e-02 9.417470281800355281e+00 3.824429806311974289e+01
2.199114857512855181e+00 2.905304941303477745e-02 9.540847062050126226e+00 3.971395393099837889e+01
2.216568150032798723e+00 2.920141337112113974e-02 9.667393656849109007e+00 4.122887268697091656e+01
2.234021442552741821e+00 2.934998729491057959e-02 9.797173755986280597e+00 4.278941246506777674e+01
2.251474735072684918e+00 2.949881716619067937e-02 9.930234205011769788e+00 4.439033007562066047e+01
2.268928027592628460e+00 2.964794938592607218e-02 1.006643919739128812e+01 4.596925052823402780e+01
2.286381320112572002e+00 2.979743080342795933e-02 1.020557773794415191e+01 4.749718111076944638e+01
2.303834612632515100e+00 2.994730882046321360e-02 1.034743467819342655e+01 4.896833611471157610e+01
2.321287905152458197e+00 3.009763146519020549e-02 1.049179618527202074e+01 5.037868752303027975e+01
2.338741197672401295e+00 3.024844744818851530e-02 1.063845136310984074e+01 5.172475574400357345e+01
2.356194490192344837e+00 3.039980628910629937e-02 1.078716156763669787e+01 5.299198227406081685e+01
2.373647782712288379e+00 3.055175835130132314e-02 1.093769231046171342e+01 5.417692015828318119e+01
2.391101075232231477e+00 3.070435497549160384e-02 1.108986338137913741e+01 5.529468282889752118e+01
2.408554367752174574e+00 3.085764854662765080e-02 1.124343599429866458e+01 5.631951265280054741e+01
2.426007660272118116e+00 3.101169259280825430e-02 1.139819942566227873e+01 5.725714489523770112e+01
2.443460952792061214e+00 3.116654191046294015e-02 1.155391871053573283e+01 5.809415199047826661e+01
2.460914245312004311e+00 3.132225262827234569e-02 1.171040369966079631e+01 5.884316832430861410e+01
2.478367537831947853e+00 3.147888237696293279e-02 1.186743887372426620e+01 5.949078463071333545e+01
2.495820830351891395e+00 3.163649034883779521e-02 1.202478306806932373e+01 6.002329011383064028e+01
2.513274122871834493e+00 3.179513748068450718e-02 1.218222295185229420e+01 6.044760291068671876e+01
2.530727415391777591e+00 3.195488654209328871e-02 1.233951931885706621e+01 6.075032749252596886e+01
2.548180707911721132e+00 3.211580231218560261e-02 1.249647112416800177e+01 6.094317859054378772e+01
2.565634000431664674e+00 3.227795171171646271e-02 1.265287957228489724e+01 6.102450159657870188e+01
2.583087292951607772e+00 3.244140397498086748e-02 1.280851931632917484e+01 6.098155596520933130e+01
2.600540585471550870e+00 3.260623082562241759e-02 1.296316374480599798e+01 6.081172578267011630e+01
2.617993877991494411e+00 3.277250665506566824e-02 1.311659001662399149e+01 6.051479376028511581e+01
2.635447170511437509e+00 3.294030873411207816e-02 1.326857906109525409e+01 6.009099125731106739e+01
2.652900463031380607e+00 3.310971742107616383e-02 1.341891473957182157e+01 5.954067905090468571e+01
2.670353755551324149e+00 3.328081640630128901e-02 1.356737963925713686e+01 5.886299250941260652e+01
2.687807048071267690e+00 3.345369294977510594e-02 1.371375082390484579e+01 5.805582162054491135e+01
2.705260340591210788e+00 3.362843813333574877e-02 1.385779898637564145e+01 5.711718169285757085e+01
2.722713633111153886e+00 3.380514724966542095e-02 1.399929667225027963e+01 5.604883675894757289e+01
2.740166925631096984e+00 3.398392007600056774e-02 1.413804141616035182e+01 5.486233495010611705e+01
2.757620218151040525e+00 3.416486097450130432e-02 1.427382753909573232e+01 5.355858506953823195e+01
2.775073510670984067e+00 3.434807956492969688e-02 1.440642710679623839e+01 5.213133672744399405e+01
2.792526803190927165e+00 3.453369224790092673e-02 1.453561350875818192e+01 5.058392507038275454e+01
2.809980095710870263e+00 3.472181927182520916e-02 1.466118833769866292e+01 4.893173184708706458e+01
2.827433388230813804e+00 3.491258547104707927e-02 1.478294444381735850e+01 4.717590851497723747e+01
2.844886680750756902e+00 3.510613889534218435e-02 1.490062788875779276e+01 4.529904929635620903e+01
2.862339973270700000e+00 3.530260496262900560e-02 1.501411161302791974e+01 4.336263574631202289e+01
2.879793265790643542e+00 3.550202956634544021e-02 1.512347943160742325e+01 4.146985687680626853e+01
2.897246558310587083e+00 3.570442006864005952e-02 1.522876064044031175e+01 3.960912965466928881e+01
2.914699850830530625e+00 3.590975037054101177e-02 1.533005553800277099e+01 3.781362007878149001e+01
2.932153143350473723e+00 3.611797169314372169e-02 1.542747760716375538e+01 3.609084726861352266e+01
2.949606435870416821e+00 3.632907358521141744e-02 1.552106798425697498e+01 3.440572207354448153e+01
2.967059728390360362e+00 3.654304346423510597e-02 1.561106284090523566e+01 3.282974615176278377e+01
2.984513020910303460e+00 3.675983177552186176e-02 1.569774467616082703e+01 3.138336448646038335e+01
3.001966313430246558e+00 3.697941009284971825e-02 1.578137196381502250e+01 3.005199577208817985e+01
3.019419605950190100e+00 3.720176784747267207e-02 1.586217663254198484e+01 2.882152525452899638e+01
3.036872898470133197e+00 3.742688646602799346e-02 1.594036606052155136e+01 2.768247495599302255e+01
3.054326190990076295e+00 3.765473747798699783e-02 1.601612656730473105e+01 2.662682634169901519e+01
3.071779483510019837e+00 3.788528556094773736e-02 1.608962623116835289e+01 2.564719047964480936e+01
3.089232776029963379e+00 3.811850162837829292e-02 1.616101719296419859e+01 2.473565766107583030e+01
3.106686068549906921e+00 3.835436362617081901e-02 1.623043763191424560e+01 2.388524042245199297e+01
3.124139361069850018e+00 3.859284941896846260e-02 1.629801343869558750e+01 2.309050350826391096e+01
3.141592653589793116e+00 3.883393518832212177e-02 1.636385964707969620e+01 2.234677963735906658e+01
3.159045946109736214e+00 3.907759442295548336e-02 1.642808165899146999e+01 2.164999938497890497e+01
3.176499238629679756e+00 3.932379883420911854e-02 1.649077630322094379e+01 2.099644251160882646e+01
3.193952531149622853e+00 3.957252140828165787e-02 1.655203276997306716e+01 2.038252958812990911e+01
3.211405823669565951e+00 3.982373679075316281e-02 1.661193340673785457e+01 1.980502505794566304e+01
3.228859116189509493e+00 4.007742015082332854e-02 1.667055439310565745e+01 1.926110450349722569e+01
3.246312408709452590e+00 4.033354670156083510e-02 1.672796638266579450e+01 1.874826777150897783e+01
3.263765701229396576e+00 4.059209149645509607e-02 1.678423504015161782e+01 1.826426969883605267e+01
3.281218993749339674e+00 4.085302904602312879e-02 1.683942148013067452e+01 1.780709070683180784e+01
3.298672286269282772e+00 4.111633327802029919e-02 1.689358274885952227e+01 1.737491775414803641e+01
3.316125578789226314e+00 4.138197789395274551e-02 1.694677213187883069e+01 1.696605727730259972e+01
3.333578871309169411e+00 4.164993705194323242e-02 1.699903954684111440e+01 1.657894174280437127e+01
3.351032163829112509e+00 4.192018544387361018e-02 1.705043178805824411e+01 1.621212058005287915e+01
3.368485456349056051e+00 4.219269828776543024e-02 1.710099284043966605e+01 1.586428335691612901e+01
3.385938748868999149e+00 4.246745101128076433e-02 1.715076406826999644e+01 1.553423338237615425e+01
3.403392041388942246e+00 4.274441882843676294e-02 1.719978448743876953e+01 1.522091363979611600e+01
3.420845333908885788e+00 4.302357671006150353e-02 1.724809088922649636e+01 1.492333305649277442e+01
3.438298626428828886e+00 4.330489938379399051e-02 1.729571809600534849e+01 1.464060346110784394e+01
