# angles(rad), pulling distance(m),                                     elastic band force(n), cable force(n)
0.000000000000000000e+00 2.405621309647175507e-04 5.942817603382177100e-02 7.340532137256658429e-02
1.745329251994329547e-02 4.835369686252587911e-04 1.196408705286536173e-01 1.482437287663111447e-01
3.490658503988659095e-02 7.288499059868433277e-04 1.806025081326691761e-01 2.244036692392597510e-01
5.235987755982988295e-02 9.764255635986906698e-04 2.422747939580419674e-01 3.017590761020895740e-01
6.981317007977318190e-02 1.226187790808916074e-03 3.046261626725677019e-01 3.802388055440665271e-01
8.726646259971647390e-02 1.478059900034696178e-03 3.676102089757153357e-01 4.596296607593251538e-01
1.047197551196597659e-01 1.731965174648938781e-03 4.312005317130360171e-01 5.399687150610721353e-01
1.221730476396030718e-01 1.987826935463797400e-03 4.953475302879737363e-01 6.209418949178973079e-01
1.396263401595463638e-01 2.245568526036429129e-03 5.600190841770651407e-01 7.025894482301372479e-01
1.570796326794896558e-01 2.505113215668112060e-03 6.251787293997710382e-01 7.847670523769865181e-01
1.745329251994329478e-01 2.766384160085315434e-03 6.907851260136883553e-01 8.672974152051341479e-01
1.919862177193762398e-01 3.029304401327736693e-03 7.568019744112979286e-01 9.501299895289510022e-01
2.094395102393195318e-01 3.293796867748302343e-03 8.231944417293801664e-01 1.033184627308825654e+00
2.268928027592628516e-01 3.559784374013165789e-03 8.899258921409552991e-01 1.116331484424043285e+00
2.443460952792061436e-01 3.827189621101709498e-03 9.569578370307033621e-01 1.199429437007536681e+00
2.617993877991494078e-01 4.095935196306543270e-03 1.024250576737607554e+00 1.282339763222460682e+00
2.792526803190927276e-01 4.365943324165374832e-03 1.091765478780475140e+00 1.364967046328811273e+00
2.967059728390360474e-01 4.637135226938577867e-03 1.159464464620374891e+00 1.447214455326980342e+00
3.141592653589793116e-01 4.909432302541445053e-03 1.227309720915584101e+00 1.528976071167230666e+00
3.316125578789225758e-01 5.182756481294284977e-03 1.295263699521589817e+00 1.610145178667468535e+00
3.490658503988658956e-01 5.457030225922420395e-03 1.363289117491087943e+00 1.690615923816103594e+00
3.665191429188092154e-01 5.732176883717065088e-03 1.431348957073983685e+00 1.770281005526647800e+00
3.839724354387524796e-01 6.008123970682669422e-03 1.499406465717390669e+00 1.849011519249361246e+00
4.014257279586957439e-01 6.284803566230645969e-03 1.567425120947113504e+00 1.926671692015346604e+00
4.188790204786390636e-01 6.562136246522342134e-03 1.635368067999421582e+00 2.003220931955328687e+00
4.363323129985823834e-01 6.840030383061527358e-03 1.703197667229448875e+00 2.078619157216371693e+00
4.537856055185257032e-01 7.118411338569433609e-03 1.770875481273095797e+00 2.152607409824248474e+00
4.712388980384689674e-01 7.397207739725903189e-03 1.838362486703514653e+00 2.225021173311494849e+00
4.886921905584122872e-01 7.676343446463278208e-03 1.905620002537746327e+00 2.295787754866077446e+00
5.061454830783556069e-01 7.955740921786679312e-03 1.972609944852387498e+00 2.364821411897001013e+00
5.235987755982988157e-01 8.235324143656038917e-03 2.039294862056157953e+00 2.432016630344034258e+00
5.410520681182421354e-01 8.515018828525908537e-03 2.105638025906454214e+00 2.497271062321398727e+00
5.585053606381854552e-01 8.794759592431717482e-03 2.171603137321436172e+00 2.560407015810658216e+00
5.759586531581287749e-01 9.074438723190468223e-03 2.237151391130722367e+00 2.621600095756271287e+00
5.934119456780720947e-01 9.353994386345043655e-03 2.302240522919038579e+00 2.680160993945269521e+00
6.108652381980153034e-01 9.633362094196457406e-03 2.366837311216278383e+00 2.736359364912078540e+00
6.283185307179586232e-01 9.912439760218799689e-03 2.430928640363148929e+00 2.791363598576090954e+00
6.457718232379019430e-01 1.019117349062708192e-02 2.494521311146488340e+00 2.845605952846128606e+00
6.632251157578451517e-01 1.046947574511339178e-02 2.557640761905651594e+00 2.900387573731901814e+00
6.806784082777884715e-01 1.074726160712671276e-02 2.620317896079945807e+00 2.956126261458760673e+00
6.981317007977317912e-01 1.102447085371927558e-02 2.682578117631571946e+00 3.012488039022112929e+00
7.155849933176750000e-01 1.130102992454507828e-02 2.744444298957889217e+00 3.069656839175808560e+00
7.330382858376184307e-01 1.157684349850188026e-02 2.805939819986023931e+00 3.128068149950017585e+00
7.504915783575616395e-01 1.185183731317463775e-02 2.867087985263623739e+00 3.187656605966706636e+00
7.679448708775049592e-01 1.212593717213976061e-02 2.927911212462974699e+00 3.248542512344407829e+00
7.853981633974482790e-01 1.239906773488753076e-02 2.988431169945200416e+00 3.310865791146580417e+00
8.028514559173914877e-01 1.267115323367901981e-02 3.048669090133066639e+00 3.374775321476910950e+00
8.203047484373349185e-01 1.294211814743216268e-02 3.108645794343237956e+00 3.440414604220232597e+00
8.377580409572781273e-01 1.321188727824066864e-02 3.168381675765811867e+00 3.507926787578837580e+00
8.552113334772214470e-01 1.348038278211237916e-02 3.227896708232311784e+00 3.577497101790303002e+00
8.726646259971647668e-01 1.374751710276382599e-02 3.287210517323266412e+00 3.649418326159068471e+00
8.901179185171079755e-01 1.401321533800043220e-02 3.346342409013173480e+00 3.723689709698287498e+00
9.075712110370514063e-01 1.427740728464499051e-02 3.405311405337384301e+00 3.800414779756659645e+00
9.250245035569946150e-01 1.454002301255984814e-02 3.464136272787264659e+00 3.879763003781348196e+00
9.424777960769379348e-01 1.480097079429556518e-02 3.522835547306810700e+00 3.962246574834080270e+00
9.599310885968812546e-01 1.506017521531575511e-02 3.581427577495523096e+00 4.047830509861556791e+00
9.773843811168245743e-01 1.531757180155339168e-02 3.639930538469669852e+00 4.136548921517093191e+00
9.948376736367677831e-01 1.557307181342877482e-02 3.698362475984001030e+00 4.229011253577653839e+00
1.012290966156711214e+00 1.582659805074155060e-02 3.756741321642291354e+00 4.325276628542982671e+00
1.029744258676654312e+00 1.607808849309360494e-02 3.815084927746124954e+00 4.425333428089099463e+00
1.047197551196597631e+00 1.632744485762744127e-02 3.873411094693906875e+00 4.530087342844867138e+00
1.064650843716540951e+00 1.657460241454364672e-02 3.931737591070963322e+00 4.639236631532292598e+00
1.082104136236484271e+00 1.681948676638056125e-02 3.990082193335017013e+00 4.753259177745515984e+00
1.099557428756427591e+00 1.706200809501602633e-02 4.048462697611361349e+00 4.872793975695707047e+00
1.117010721276370910e+00 1.730210747305021765e-02 4.106896961470820173e+00 4.997586887876408923e+00
1.134464013796314230e+00 1.753969101504031930e-02 4.165402920912455897e+00 5.128741080035164934e+00
1.151917306316257550e+00 1.777468769217300723e-02 4.223998622032132388e+00 5.266205543978125014e+00
1.169370598836200648e+00 1.800703326135423207e-02 4.282702252328625114e+00 5.410263913717296980e+00
1.186823891356144189e+00 1.823662646836657700e-02 4.341532159486102493e+00 5.562271140061125330e+00
1.204277183876087287e+00 1.846340482904212238e-02 4.400506895214128633e+00 5.721858347541069811e+00
1.221730476396030607e+00 1.868730152081743076e-02 4.459645228926619076e+00 5.889680318551678617e+00
1.239183768915973927e+00 1.890821498627453384e-02 4.518966193725766800e+00 6.067295036811566789e+00
1.256637061435917246e+00 1.912607739446143748e-02 4.578489107154312343e+00 6.254521214253921713e+00
1.274090353955860566e+00 1.934082203810559564e-02 4.638233609619630826e+00 6.452057537319204172e+00
1.291543646475803886e+00 1.955237622430702066e-02 4.698219699613135347e+00 6.660889930155151184e+00
1.308996938995747206e+00 1.976065220469384875e-02 4.758467762325190975e+00 6.882417829108238294e+00
1.326450231515690303e+00 1.996557621016079032e-02 4.818998619342342415e+00 7.117226596479007128e+00
1.343903524035633845e+00 2.016732013119159825e-02 4.879833551432636085e+00 7.357454469916948625e+00
1.361356816555576943e+00 2.036603727031990191e-02 4.940994358225526462e+00 7.603652171971989837e+00
1.378810109075520263e+00 2.056187661725047272e-02 5.002503382096889162e+00 7.855905995618367221e+00
1.396263401595463582e+00 2.075497822722291094e-02 5.064383572540199552e+00 8.114510800595819973e+00
1.413716694115406902e+00 2.094547481461344479e-02 5.126658516997979476e+00 8.379739993597372205e+00
1.431169986635350000e+00 2.113349224350082392e-02 5.189352507687497784e+00 8.651889873370912198e+00
1.448623279155293542e+00 2.131915003844806616e-02 5.252490581883765053e+00 8.931274341818154383e+00
1.466076571675236861e+00 2.150256186966711947e-02 5.316098592522859434e+00 9.218229096350249563e+00
1.483529864195180181e+00 2.168383598572128437e-02 5.380203257866594591e+00 9.513110223187023706e+00
1.500983156715123279e+00 2.186307561298587651e-02 5.444832239514365568e+00 9.816299226155400959e+00
1.518436449235066599e+00 2.204037932088888027e-02 5.510014200227805858e+00 1.012820130434677246e+01
1.535889741755009918e+00 2.221584135768011822e-02 5.575778894108215589e+00 1.044925155383214843e+01
1.553343034274953460e+00 2.238955195932879755e-02 5.642157231609917112e+00 1.077991249247155991e+01
1.570796326794896558e+00 2.256159763429495257e-02 5.709181386071951358e+00 1.112068220102409022e+01
1.588249619314839878e+00 2.273206142648370384e-02 5.776884868046790800e+00 1.147209080334945774e+01
1.605702911834782975e+00 2.290102315848552283e-02 5.845302647940143537e+00 1.183471029914906758e+01
1.623156204354726295e+00 2.306855965737091702e-02 5.914471250015180814e+00 1.220915176985994322e+01
1.640609496874669837e+00 2.323474496456012783e-02 5.984428882769635472e+00 1.259607377772853809e+01
1.658062789394613157e+00 2.339965053077253457e-02 6.055215569331385161e+00 1.299618492010115034e+01
1.675516081914556255e+00 2.356334539757197130e-02 6.126873279998442889e+00 1.341024680174494144e+01
1.692969374434499574e+00 2.372589636670426744e-02 6.199446103054479629e+00 1.383908405726673863e+01
1.710422666954442894e+00 2.388736815836144112e-02 6.272980402749165130e+00 1.428358526837912379e+01
1.727875959474386436e+00 2.404782356074128616e-02 6.347525005997556313e+00 1.474471180662383318e+01
1.745329251994329534e+00 2.420732357085745440e-02 6.423131415376952091e+00 1.522350697454344548e+01
1.762782544514272853e+00 2.436592752564897130e-02 6.499854025418150272e+00 1.572110122891921336e+01
1.780235837034215951e+00 2.452369322530085008e-02 6.577750367973587586e+00 1.623872289852702977e+01
1.797689129554159271e+00 2.468067705038454532e-02 6.656881392556863730e+00 1.677771085146917684e+01
1.815142422074102813e+00 2.483693407529079245e-02 6.737311765975495526e+00 1.733952446298911099e+01
1.832595714594046132e+00 2.499251817365320122e-02 6.819110204790658436e+00 1.792575766840691287e+01
1.850049007113989230e+00 2.514748211770762715e-02 6.902349847332621025e+00 1.853815535921518176e+01
1.867502299633932550e+00 2.530187767432305612e-02 6.987108669949382289e+00 1.917863173469998372e+01
1.884955592153875870e+00 2.545575569963412499e-02 7.073469951236837083e+00 1.984929059565904552e+01
1.902408884673818967e+00 2.560916622655956890e-02 7.161522790256635851e+00 2.055244923620998065e+01
1.919862177193762509e+00 2.576215854829775123e-02 7.251362689019257957e+00 2.129066617432618003e+01
1.937315469713705829e+00 2.591478130217502590e-02 7.343092208799779641e+00 2.206677264383921511e+01
1.954768762233649149e+00 2.606708255083197215e-02 7.436821711559722381e+00 2.288390959646428158e+01
1.972222054753592246e+00 2.621910985779549522e-02 7.532670199909794029e+00 2.374557131615195615e+01
1.989675347273535566e+00 2.637091036257210169e-02 7.630766271461348893e+00 2.465565563369030144e+01
2.007128639793478886e+00 2.652253085763838641e-02 7.731249207875953822e+00 2.561852281978236334e+01
2.024581932313422428e+00 2.667401785987949178e-02 7.834270224204430200e+00 2.663906700737580024e+01
2.042035224833365525e+00 2.682541768049513317e-02 7.939993901484373673e+00 2.772279879301689931e+01
2.059488517353308623e+00 2.697677649854502910e-02 8.048599835087237864e+00 2.887594229882755670e+01
2.076941809873252165e+00 2.712814043158458949e-02 8.160284557851086973e+00 3.010555752008416519e+01
2.094395102393195263e+00 2.727955560359745721e-02 8.275263763153164476e+00 3.141968002623864109e+01
2.111848394913138804e+00 2.743106821646172297e-02 8.393774918578733590e+00 3.282749683929223039e+01
2.129301687433081902e+00 2.758272462229794178e-02 8.516080329385459891e+00 3.433955517426019810e+01
2.146754979953025444e+00 2.773457139240799799e-02 8.642470806424130458e+00 3.596803564623164817e+01
2.164208272472968542e+00 2.788665538871211436e-02 8.773270250656050706e+00 3.772714094741316870e+01
2.181661564992911639e+00 2.803902383966351899e-02 8.908829473099688201e+00 3.963005427683760473e+01
2.199114857512855181e+00 2.819172441326700529e-02 9.049136707516007405e+00 4.157349626543181387e+01
2.216568150032798723e+00 2.834480529142892682e-02 9.193920128774948353e+00 4.347790615681783777e+01
2.234021442552741821e+00 2.849831525038761318e-02 9.342890155725717349e+00 4.533290894407400629e+01
2.251474735072684918e+00 2.865230374141940553e-02 9.495741047359517850e+00 4.712795339727475863e+01
2.268928027592628460e+00 2.880682097186066520e-02 9.652158343612125435e+00 4.885424450070603086e+01
2.286381320112572002e+00 2.896191799105692424e-02 9.811826072366248042e+00 5.050490306079893799e+01
2.303834612632515100e+00 2.911764678205181964e-02 9.974427135613844086e+00 5.207298044167236384e+01
2.321287905152458197e+00 2.927406035350598595e-02 1.013964384637341887e+01 5.355157448924661878e+01
2.338741197672401295e+00 2.943121283548008268e-02 1.030717170005217831e+01 5.493830993686816555e+01
2.356194490192344837e+00 2.958915958219770007e-02 1.047674187131656076e+01 5.623866747277975264e+01
2.373647782712288379e+00 2.974795728055220842e-02 1.064802672955229568e+01 5.742670604677200430e+01
2.391101075232231477e+00 2.990766406174780526e-02 1.082071266509890073e+01 5.850048682545023127e+01
2.408554367752174574e+00 3.006833961928045626e-02 1.099449082139783229e+01 5.945528908464460471e+01
2.426007660272118116e+00 3.023004533494124541e-02 1.116908763181236708e+01 6.029740716913216403e+01
2.443460952792061214e+00 3.039284441375530652e-02 1.134419005962018723e+01 6.100756943537665222e+01
2.460914245312004311e+00 3.055680202535323436e-02 1.151947363102652844e+01 6.157611284674956664e+01
2.478367537831947853e+00 3.072198545440515266e-02 1.169460718516131870e+01 6.199526587814776235e+01
2.495820830351891395e+00 3.088846426142003235e-02 1.186929306237449744e+01 6.227212663518947267e+01
2.513274122871834493e+00 3.105631045501132392e-02 1.204324084257766003e+01 6.240519865822942336e+01
2.530727415391777591e+00 3.122559867712643156e-02 1.221615199041934474e+01 6.238794514114591294e+01
2.548180707911721132e+00 3.139640640114945563e-02 1.238772245987230747e+01 6.221520045565533508e+01
2.565634000431664674e+00 3.156881414462153063e-02 1.255764296806108682e+01 6.188240248999599658e+01
2.583087292951607772e+00 3.174290569851589278e-02 1.272559540779550069e+01 6.138421847590590374e+01
2.600540585471550870e+00 3.191876837480011470e-02 1.289124819855260640e+01 6.071416873531134684e+01
2.617993877991494411e+00 3.209649327403989172e-02 1.305429150240190239e+01 5.987947735707644625e+01
2.635447170511437509e+00 3.227617557561125727e-02 1.321444480248223563e+01 5.889107957041570529e+01
2.652900463031380607e+00 3.245791485149446265e-02 1.337141330053920107e+01 5.774455335767316910e+01
2.670353755551324149e+00 3.264181541132261249e-02 1.352486775039997191e+01 5.642862485075538359e+01
2.687807048071267690e+00 3.282798666328452797e-02 1.367449418765727920e+01 5.495117600147632686e+01
2.705260340591210788e+00 3.301654356813944063e-02 1.382005929112206033e+01 5.334512576321473176e+01
2.722713633111153886e+00 3.320760688490318607e-02 1.396118586520730176e+01 5.156129299692653944e+01
2.740166925631096984e+00 3.340130445950535015e-02 1.409757634523908187e+01 4.963343523947099811e+01
2.757620218151040525e+00 3.359776891103434526e-02 1.422895921382897377e+01 4.757709254810283994e+01
2.775073510670984067e+00 3.379714314547147685e-02 1.435516979305004526e+01 4.543652040878501452e+01
2.792526803190927165e+00 3.399946362783799747e-02 1.447630431640054915e+01 4.333669539367910772e+01
2.809980095710870263e+00 3.420470091260791046e-02 1.459248285766119935e+01 4.130178816375173767e+01
2.827433388230813804e+00 3.441282896941125907e-02 1.470378511847088632e+01 3.931628804116413534e+01
2.844886680750756902e+00 3.462381901925470212e-02 1.481029725013020482e+01 3.738271856398025506e+01
2.862339973270700000e+00 3.483764116809885680e-02 1.491213857795656317e+01 3.551250424053705501e+01
2.879793265790643542e+00 3.505426376543914480e-02 1.500940820775894302e+01 3.369822903628219279e+01
2.897246558310587083e+00 3.527365443377521170e-02 1.510218844041271957e+01 3.193354958325509330e+01
2.914699850830530625e+00 3.549576901537366408e-02 1.519079813045869365e+01 3.030084527103155878e+01
2.932153143350473723e+00 3.572057656635833217e-02 1.527561485673028585e+01 2.881637289892228537e+01
2.949606435870416821e+00 3.594804596987932060e-02 1.535697367433285443e+01 2.746358852570335429e+01
2.967059728390360362e+00 3.617814604915783883e-02 1.543516836777087597e+01 2.622659371666733108e+01
2.984513020910303460e+00 3.641084587757563440e-02 1.551045790798740143e+01 2.509188022140451224e+01
3.001966313430246558e+00 3.664611444431143533e-02 1.558307176078698220e+01 2.404798258225854468e+01
3.019419605950190100e+00 3.688391249075215900e-02 1.565321421174949634e+01 2.308586690864771285e+01
3.036872898470133197e+00 3.712420312183526555e-02 1.572106793772741185e+01 2.219672550524436971e+01
3.054326190990076295e+00 3.736695485592292365e-02 1.578679697013190264e+01 2.137267718215824175e+01
3.071779483510019837e+00 3.761213726260719675e-02 1.585054915994915348e+01 2.060725384864126397e+01
3.089232776029963379e+00 3.785972619262369804e-02 1.591245825223560040e+01 1.989438393663675342e+01
3.106686068549906921e+00 3.810969150527117322e-02 1.597264563979517504e+01 1.922970437962104739e+01
3.124139361069850018e+00 3.836198593310109761e-02 1.603122185325521087e+01 1.861016672818686502e+01
3.141592653589793116e+00 3.861658060250612590e-02 1.608828783393938977e+01 1.803050167779659319e+01
3.159045946109736214e+00 3.887344635719719443e-02 1.614393602602683586e+01 1.748736132818298117e+01
3.176499238629679756e+00 3.913254812255109738e-02 1.619825131565534093e+01 1.697813039759514098e+01
3.193952531149622853e+00 3.939385973404298941e-02 1.625131184098382420e+01 1.649951830759719229e+01
3.211405823669565951e+00 3.965735218902791820e-02 1.630318971181422327e+01 1.604931666907392440e+01
3.228859116189509493e+00 3.992298744633088203e-02 1.635395163069109259e+01 1.562589948379096150e+01
3.246312408709452590e+00 4.019072694122426126e-02 1.640365941650927439e+01 1.522729377738868273e+01
3.263765701229396576e+00 4.046053427858101181e-02 1.645237049077003633e+01 1.485157239593154266e+01
3.281218993749339674e+00 4.073237642901853667e-02 1.650013831358628380e+01 1.449693658872249102e+01
3.298672286269282772e+00 4.100622370917191006e-02 1.654701271751822134e+01 1.416175025644604091e+01
3.316125578789226314e+00 4.128204675322424272e-02 1.659304027986247121e+01 1.384469522091703730e+01
3.333578871309169411e+00 4.155981477321412515e-02 1.663826458356681925e+01 1.354464654836740323e+01
3.351032163829112509e+00 4.183949562578539311e-02 1.668272649593876267e+01 1.326057748981031104e+01
3.368485456349056051e+00 4.212105660790664563e-02 1.672646439921313544e+01 1.299151033824612078e+01
3.385938748868999149e+00 4.240446488159395344e-02 1.676951439614188644e+01 1.273652906913875249e+01
3.403392041388942246e+00 4.268968747789458895e-02 1.681191050565372791e+01 1.249479543601220932e+01
3.420845333908885788e+00 4.297669129688701933e-02 1.685368483035630049e+01 1.226553892226639064e+01
3.438298626428828886e+00 4.326544310768089957e-02 1.689486770310889696e+01 1.204804889147137104e+01
