# angles(rad), pulling distance(m),                                     elastic band force(n), cable force(n)
0.000000000000000000e+00 2.018177314812659353e-04 7.349843519827953253e-02 1.338341268863471045e-01
1.745329251994329547e-02 4.066505302081289660e-04 1.473454815013127694e-01 2.656075751198327950e-01
3.490658503988659095e-02 6.145410470968022849e-04 2.215134991961238420e-01 3.951410909429694529e-01
5.235987755982988295e-02 8.254552187894504279e-04 2.959745973235257677e-01 5.224540711906444646e-01
6.981317007977318190e-02 1.039271994395865595e-03 3.707006336781203393e-01 6.477739866373550814e-01
8.726646259971647390e-02 1.255915181135531080e-03 4.456632148082981248e-01 7.710389004051289019e-01
1.047197551196597659e-01 1.475308757707141649e-03 5.208336960162386342e-01 8.922622113795513066e-01
1.221730476396030718e-01 1.697372111118516892e-03 5.961831813579101524e-01 1.011470267258825828e+00
1.396263401595463638e-01 1.922022411012649272e-03 6.716825236430696844e-01 1.128678412256427954e+00
1.570796326794896558e-01 2.149179581772773812e-03 7.473023540377372598e-01 1.243871744765309595e+00
1.745329251994329478e-01 2.378765895185801053e-03 8.230132004740912111e-01 1.357028324334130343e+00
1.919862177193762398e-01 2.610698011335355669e-03 8.987855172529426451e-01 1.468167972166896984e+00
2.094395102393195318e-01 2.844882926442283098e-03 9.745896850437349990e-01 1.577342417177010514e+00
2.268928027592628516e-01 3.081236755944087927e-03 1.050396010884544262e+00 1.684480053292132018e+00
2.443460952792061436e-01 3.319684562544532921e-03 1.126174728182079088e+00 1.789491746039373998e+00
2.617993877991494078e-01 3.560147364425362768e-03 1.201895996715042214e+00 1.892373556410940960e+00
2.792526803190927276e-01 3.802542225290892180e-03 1.277529966834111130e+00 1.993125245987566130e+00
2.967059728390360474e-01 4.046785722250897770e-03 1.353047008045626942e+00 2.091726247361083146e+00
3.141592653589793116e-01 4.292794441907592934e-03 1.428417759863482850e+00 2.188152530144642505e+00
3.316125578789225758e-01 4.540484980355629155e-03 1.503613135970080616e+00 2.282379375218076767e+00
3.490658503988658956e-01 4.789773943182094700e-03 1.578604358561681575e+00 2.374382513665038719e+00
3.665191429188092154e-01 5.040578263905664234e-03 1.653362972286905430e+00 2.464134657572691900e+00
3.839724354387524796e-01 5.292816076107856663e-03 1.727860317232050580e+00 2.551580291353821028e+00
4.014257279586957439e-01 5.546405425370836556e-03 1.802066400750003128e+00 2.636630643747481351e+00
4.188790204786390636e-01 5.801263867652077869e-03 1.875950122292634470e+00 2.719199239050208217e+00
4.363323129985823834e-01 6.057308469284363069e-03 1.949480607281614875e+00 2.799243835179407558e+00
4.537856055185257032e-01 6.314455806975787476e-03 2.022627666859241558e+00 2.876741166744009703e+00
4.712388980384689674e-01 6.572621967809751456e-03 2.095362273635907879e+00 2.951691084053159830e+00
4.886921905584122872e-01 6.831722549287457674e-03 2.167656596670655134e+00 3.024101013868089716e+00
5.061454830783556069e-01 7.091673259864021521e-03 2.239483536936364150e+00 3.093956732735887005e+00
5.235987755982988157e-01 7.352392030032187803e-03 2.310812503701804133e+00 3.161028033604823317e+00
5.410520681182421354e-01 7.613799475958801972e-03 2.381610060814045582e+00 3.225083618063938395e+00
5.585053606381854552e-01 7.875818473209263149e-03 2.451848483618756180e+00 3.286287869441863130e+00
5.759586531581287749e-01 8.138369652558759965e-03 2.521501320687264069e+00 3.344675904579867520e+00
5.934119456780720947e-01 8.401368695464409356e-03 2.590538460273335897e+00 3.400076352162566540e+00
6.108652381980153034e-01 8.664728089428235663e-03 2.658930351746532139e+00 3.452492681472651981e+00
6.283185307179586232e-01 8.928362905399271632e-03 2.726682346762079323e+00 3.503675493055898649e+00
6.457718232379019430e-01 9.192191871063019187e-03 2.793823972952846013e+00 3.554990339345008188e+00
6.632251157578451517e-01 9.456136793664639620e-03 2.860386678030106822e+00 3.606719784187941258e+00
6.806784082777884715e-01 9.720120632933494306e-03 2.926400297481239754e+00 3.658979203701601346e+00
6.981317007977317912e-01 9.984056686321296503e-03 2.991893530709023974e+00 3.712050291809064984e+00
7.155849933176750000e-01 1.024785023692164655e-02 3.056894199290036696e+00 3.766205926624508926e+00
7.330382858376184307e-01 1.051142055911644287e-02 3.121429161490029358e+00 3.821395961223497562e+00
7.504915783575616395e-01 1.077469504737182948e-02 3.185524425348513322e+00 3.877645531159450876e+00
7.679448708775049592e-01 1.103759244583280355e-02 3.249205211601732923e+00 3.935222329778423678e+00
7.853981633974482790e-01 1.130002843640068658e-02 3.312495999789456746e+00 3.994316523463414370e+00
8.028514559173914877e-01 1.156191815343086265e-02 3.375420588868779159e+00 4.055083871429340903e+00
8.203047484373349185e-01 1.182317510603763701e-02 3.438002146044508933e+00 4.117699562177796757e+00
8.377580409572781273e-01 1.208372796909255864e-02 3.500263252438252426e+00 4.182073845034492088e+00
8.552113334772214470e-01 1.234350124937691993e-02 3.562225952310914323e+00 4.248418800425343811e+00
8.726646259971647668e-01 1.260238781428977238e-02 3.623911792721512537e+00 4.317413006409897669e+00
8.901179185171079755e-01 1.286030851179228301e-02 3.685341865136380957e+00 4.388767939933760687e+00
9.075712110370514063e-01 1.311719594764732683e-02 3.746536846477806382e+00 4.462445811179022392e+00
9.250245035569946150e-01 1.337297010200114850e-02 3.807517032521164246e+00 4.538830312878464390e+00
9.424777960769379348e-01 1.362753908077719844e-02 3.868302377442265350e+00 4.618317899581908748e+00
9.599310885968812546e-01 1.388081307858539393e-02 3.928912526240247782e+00 4.701074229696756923e+00
9.773843811168245743e-01 1.413271317366656017e-02 3.989366847126911253e+00 4.787105448156321330e+00
9.948376736367677831e-01 1.438316272836540066e-02 4.049684466645412151e+00 4.876577383474009153e+00
1.012290966156711214e+00 1.463208382999111115e-02 4.109884296653975255e+00 4.969734072313796602e+00
1.029744258676654312e+00 1.487939688522246090e-02 4.169985068503759607e+00 5.066843741522381706e+00
1.047197551196597631e+00 1.512501303137417027e-02 4.230005360414621052e+00 5.168352335431936950e+00
1.064650843716540951e+00 1.536883950133512144e-02 4.289963626488955128e+00 5.274627906630398932e+00
1.082104136236484271e+00 1.561079570775227542e-02 4.349878227529323738e+00 5.385710547289551897e+00
1.099557428756427591e+00 1.585080325584020677e-02 4.409767455480722020e+00 5.501859638539063901e+00
1.117010721276370910e+00 1.608878261808521087e-02 4.469649565709254979e+00 5.623429810295079712e+00
1.134464013796314230e+00 1.632465412170457791e-02 4.529542801332145707e+00 5.750778922025683748e+00
1.151917306316257550e+00 1.655833977577315236e-02 4.589465422801146666e+00 5.884246518506416557e+00
1.169370598836200648e+00 1.678975901290242698e-02 4.649435736141302122e+00 6.024307257472227839e+00
1.186823891356144189e+00 1.701881477073458396e-02 4.709472118491423664e+00 6.171852466161652728e+00
1.204277183876087287e+00 1.724542079133846439e-02 4.769593050326434991e+00 6.327112975534715744e+00
1.221730476396030607e+00 1.746949770118611661e-02 4.829817139947467197e+00 6.490435370765189838e+00
1.239183768915973927e+00 1.769096758190466870e-02 4.890163155915772109e+00 6.662347560243021327e+00
1.256637061435917246e+00 1.790975200936703940e-02 4.950650055511490955e+00 6.843482333603545520e+00
1.274090353955860566e+00 1.812577639728200213e-02 5.011297014091404378e+00 7.034389158063099501e+00
1.291543646475803886e+00 1.833896100531046125e-02 5.072123459615564656e+00 7.235964269684305172e+00
1.308996938995747206e+00 1.854919681130355255e-02 5.133149100786801533e+00 7.450056226705923379e+00
1.326450231515690303e+00 1.875639504365056096e-02 5.194393964081140069e+00 7.676946483170182134e+00
1.343903524035633845e+00 1.896053078504382483e-02 5.255878426858068053e+00 7.915195528490681198e+00
1.361356816555576943e+00 1.916167842671142457e-02 5.317623252109916265e+00 8.161560228463205391e+00
1.378810109075520263e+00 1.935998755070950095e-02 5.379649629584545067e+00 8.413132282534178330e+00
1.396263401595463582e+00 1.955559550674079716e-02 5.441979211274119876e+00 8.670309088752276239e+00
1.413716694115406902e+00 1.974863188634834801e-02 5.504634154911457244e+00 8.933356070532378013e+00
1.431169986635350000e+00 1.993922133471931479e-02 5.567637168142111292e+00 9.202448539679414452e+00
1.448623279155293542e+00 2.012748160077125828e-02 5.631011551040911556e+00 9.477886375789223550e+00
1.466076571675236861e+00 2.031352487228466758e-02 5.694781247996871798e+00 9.759946475384067455e+00
1.483529864195180181e+00 2.049745818163140748e-02 5.758970898006660732e+00 1.004892283166431710e+01
1.500983156715123279e+00 2.067938362758128812e-02 5.823605886730818249e+00 1.034513613138214794e+01
1.518436449235066599e+00 2.085939881674981830e-02 5.888712407692868744e+00 1.064892300426964056e+01
1.535889741755009918e+00 2.103759716996883924e-02 5.954317523012404578e+00 1.096064247199422503e+01
1.553343034274953460e+00 2.121406820527125051e-02 6.020449227172107065e+00 1.128067749241617435e+01
1.570796326794896558e+00 2.138889784030561028e-02 6.087136519823777014e+00 1.160943493442558250e+01
1.588249619314839878e+00 2.156216861132070547e-02 6.154409481746265342e+00 1.194735131307424503e+01
1.605702911834782975e+00 2.173395994698299957e-02 6.222299354357939905e+00 1.229488987004219247e+01
1.623156204354726295e+00 2.190434835427033239e-02 6.290838626915070897e+00 1.265254808491637029e+01
1.640609496874669837e+00 2.207340764389683838e-02 6.360061132686628760e+00 1.302085704481234352e+01
1.658062789394613157e+00 2.224120910958250416e-02 6.430002150216014734e+00 1.340038632155604503e+01
1.675516081914556255e+00 2.240782170454406683e-02 6.500698512767345782e+00 1.379174662640367188e+01
1.692969374434499574e+00 2.257331221576384245e-02 6.572188727500654970e+00 1.419559284498444107e+01
1.710422666954442894e+00 2.273774540387503429e-02 6.644513105782816176e+00 1.461263036019371953e+01
1.727875959474386436e+00 2.290118416808188673e-02 6.717713904821049908e+00 1.504361673099752217e+01
1.745329251994329534e+00 2.306368966130134535e-02 6.791835481249329121e+00 1.548937032029643213e+01
1.762782544514272853e+00 2.322532144200481832e-02 6.866924459040002482e+00 1.595077205580798996e+01
1.780235837034215951e+00 2.338613757402440568e-02 6.943029913383647056e+00 1.642877612599273363e+01
1.797689129554159271e+00 2.354619476273065587e-02 7.020203572357368138e+00 1.692441310504031549e+01
1.815142422074102813e+00 2.370554844706410438e-02 7.098500038484790053e+00 1.743880193744802654e+01
1.832595714594046132e+00 2.386425291785624139e-02 7.177977032622121278e+00 1.797315588187834834e+01
1.850049007113989230e+00 2.402236140868097697e-02 7.258695662986045960e+00 1.852879529393175773e+01
1.867502299633932550e+00 2.417992619427778225e-02 7.340720722571799861e+00 1.910715812516988521e+01
1.884955592153875870e+00 2.433699868574095565e-02 7.424121018694313179e+00 1.970981314553234043e+01
1.902408884673818967e+00 2.449362950794900518e-02 7.508969738921238424e+00 2.033847692262943596e+01
1.919862177193762509e+00 2.464986860245292274e-02 7.595344858253307407e+00 2.099502754361513368e+01
1.937315469713705829e+00 2.480576528530655661e-02 7.683329593117088407e+00 2.168152986796205539e+01
1.954768762233649149e+00 2.496136835723112776e-02 7.773012910383793717e+00 2.240025130410253240e+01
1.972222054753592246e+00 2.511672614755097732e-02 7.864490098837900511e+00 2.315369706873762112e+01
1.989675347273535566e+00 2.527188662591935489e-02 7.957863409138417055e+00 2.394463001288489323e+01
2.007128639793478886e+00 2.542689744330196844e-02 8.053242777866980617e+00 2.477611644595363671e+01
2.024581932313422428e+00 2.558180603501642933e-02 8.150746648542197548e+00 2.565155806821872275e+01
2.042035224833365525e+00 2.573665967124690035e-02 8.250502898842597688e+00 2.657474671941761457e+01
2.059488517353308623e+00 2.589150554271470173e-02 8.352649902300635532e+00 2.754991626081194411e+01
2.076941809873252165e+00 2.604639082917011017e-02 8.457337738293121632e+00 2.858181065295703860e+01
2.094395102393195263e+00 2.620136276445932805e-02 8.564729580637980177e+00 2.967576313523048270e+01
2.111848394913138804e+00 2.635646872518088504e-02 8.675003298756337244e+00 3.083778547235122502e+01
2.129301687433081902e+00 2.651175627838967680e-02 8.788353308561228872e+00 3.207468702771306113e+01
2.146754979953025444e+00 2.666727328611380454e-02 8.904992722557066642e+00 3.339419745777117043e+01
2.164208272472968542e+00 2.682306794521880158e-02 9.025155859307384176e+00 3.480514171490365527e+01
2.181661564992911639e+00 2.697918889814922283e-02 9.149101185528191849e+00 3.631762136286835840e+01
2.199114857512855181e+00 2.713568527791209231e-02 9.277114914424011261e+00 3.794330818993874033e+01
2.216568150032798723e+00 2.729260681483471757e-02 9.409513467338259218e+00 3.969518751645254184e+01
2.234021442552741821e+00 2.745000389715235301e-02 9.546563740861945035e+00 4.156237055449601314e+01
2.251474735072684918e+00 2.760792766870790935e-02 9.688362475319213019e+00 4.349559044948038178e+01
2.268928027592628460e+00 2.776643011012360981e-02 9.834941966785768486e+00 4.547566520801164103e+01
2.286381320112572002e+00 2.792556412763626608e-02 9.986020615097476849e+00 4.740263961543548277e+01
2.303834612632515100e+00 2.808538365564402020e-02 1.014127061932985008e+01 4.925656852447360023e+01
2.321287905152458197e+00 2.824594374048232034e-02 1.030033570735763782e+01 5.102213939587385738e+01
2.338741197672401295e+00 2.840730066284779740e-02 1.046289819173206226e+01 5.270535341372278992e+01
2.356194490192344837e+00 2.856951202219828664e-02 1.062861481094251204e+01 5.429145407609235008e+01
2.373647782712288379e+00 2.873263687693084975e-02 1.079714540422542335e+01 5.577474149231336042e+01
2.391101075232231477e+00 2.889673583576170962e-02 1.096816105197562585e+01 5.715231773242103941e+01
2.408554367752174574e+00 2.906187121379925908e-02 1.114132052855692301e+01 5.841344398989639330e+01
2.426007660272118116e+00 2.922810713777681049e-02 1.131629465646447130e+01 5.955568270932545261e+01
2.443460952792061214e+00 2.939550971614920266e-02 1.149273841194367130e+01 6.056722500511442320e+01
2.460914245312004311e+00 2.956414716661299666e-02 1.167032663886920218e+01 6.144876507972126944e+01
2.478367537831947853e+00 2.973408999711778591e-02 1.184871243670362517e+01 6.218685469265604127e+01
2.495820830351891395e+00 2.990541116715432490e-02 1.202755927222887600e+01 6.277948354169333811e+01
2.513274122871834493e+00 3.007818627483732632e-02 1.220654010000163581e+01 6.322486730403712585e+01
2.530727415391777591e+00 3.025249376555085370e-02 1.238529594730118610e+01 6.350685395253959342e+01
2.548180707911721132e+00 3.042841512246408434e-02 1.256351428267864456e+01 6.363777091187110813e+01
2.565634000431664674e+00 3.060603513062404302e-02 1.274080894149770593e+01 6.358735701462793344e+01
2.583087292951607772e+00 3.078544208581034808e-02 1.291691038494753307e+01 6.339460366347545772e+01
2.600540585471550870e+00 3.096672809517730940e-02 1.309149060290134869e+01 6.303617391037807494e+01
2.617993877991494411e+00 3.114998935371520242e-02 1.326418098836506765e+01 6.249538353103862676e+01
2.635447170511437509e+00 3.133532645315683512e-02 1.343462825469577737e+01 6.177650527285182847e+01
2.652900463031380607e+00 3.152284472842695195e-02 1.360249490907353653e+01 6.088487397528312783e+01
2.670353755551324149e+00 3.171265463944004936e-02 1.376745576658324133e+01 5.982541419625319890e+01
2.687807048071267690e+00 3.190487222278320240e-02 1.392918389437205207e+01 5.859871905790183177e+01
2.705260340591210788e+00 3.209961924036260073e-02 1.408732876847886040e+01 5.719827862534647522e+01
2.722713633111153886e+00 3.229702427852174096e-02 1.424156906875755979e+01 5.563748296621984935e+01
2.740166925631096984e+00 3.249722328265826354e-02 1.439160053816029894e+01 5.392616674369196517e+01
2.757620218151040525e+00 3.270035603222438969e-02 1.453697206405127673e+01 5.201676773684653199e+01
2.775073510670984067e+00 3.290658165954239711e-02 1.467749290187313704e+01 5.000575405003402807e+01
2.792526803190927165e+00 3.311600909371571755e-02 1.481276640167868663e+01 4.783935688432383415e+01
2.809980095710870263e+00 3.332860972800354149e-02 1.494246405273677247e+01 4.557847381668994302e+01
2.827433388230813804e+00 3.354434708291827161e-02 1.506656534601191133e+01 4.333464284369153319e+01
2.844886680750756902e+00 3.376319664298726292e-02 1.518517693060950080e+01 4.115013750922171454e+01
2.862339973270700000e+00 3.398513467426925866e-02 1.529840889256609060e+01 3.902595791521552115e+01
2.879793265790643542e+00 3.421012579445081858e-02 1.540637365713194917e+01 3.696469228126978379e+01
2.897246558310587083e+00 3.443812006326816416e-02 1.550950695478957897e+01 3.507865802040856806e+01
2.914699850830530625e+00 3.466909604215202140e-02 1.560825160730759897e+01 3.336345599280746654e+01
2.932153143350473723e+00 3.490302969192209115e-02 1.570299338060008054e+01 3.179810686364318784e+01
2.949606435870416821e+00 3.513987067789229451e-02 1.579407075069360289e+01 3.036810586545178126e+01
2.967059728390360362e+00 3.537959482935575800e-02 1.588178234529090460e+01 2.905457055638041908e+01
2.984513020910303460e+00 3.562217264541440997e-02 1.596639291829472995e+01 2.784520191439377612e+01
3.001966313430246558e+00 3.586755978433345954e-02 1.604813830125732466e+01 2.673043944054729693e+01
3.019419605950190100e+00 3.611573605416477234e-02 1.612722949114578341e+01 2.569789953982939679e+01
3.036872898470133197e+00 3.636667543630104499e-02 1.620385603373886241e+01 2.473994822915241087e+01
3.054326190990076295e+00 3.662032735716342496e-02 1.627818885320813891e+01 2.385165602528231332e+01
3.071779483510019837e+00 3.687665362387709811e-02 1.635038263156585359e+01 2.302526219612290959e+01
3.089232776029963379e+00 3.713562915250671892e-02 1.642057781906335379e+01 2.225394702205426611e+01
3.106686068549906921e+00 3.739722391446034105e-02 1.648890233899759750e+01 2.153323576017226415e+01
3.124139361069850018e+00 3.766140448395238066e-02 1.655547305483579734e+01 2.085902256966787149e+01
3.141592653589793116e+00 3.792813850125041630e-02 1.662039703660310863e+01 2.022731043270293583e+01
3.159045946109736214e+00 3.819739418429256989e-02 1.668377263341397310e+01 1.963457253256694557e+01
3.176499238629679756e+00 3.846913945033231946e-02 1.674569038665221399e+01 1.907771090689534432e+01
3.193952531149622853e+00 3.874334196028506733e-02 1.680623389275445945e+01 1.855395715409562385e+01
3.211405823669565951e+00 3.901996927966849826e-02 1.686548049210646028e+01 1.806080411403259589e+01
3.228859116189509493e+00 3.929898873626115618e-02 1.692350186694340763e+01 1.759599236137165335e+01
3.246312408709452590e+00 3.958036648253120821e-02 1.698036465869673250e+01 1.715755691916478654e+01
3.263765701229396576e+00 3.986406715200834644e-02 1.703613086144958899e+01 1.674370965522826538e+01
3.281218993749339674e+00 4.015005447041771619e-02 1.709085834893192768e+01 1.635281839691140959e+01
3.298672286269282772e+00 4.043829349398278539e-02 1.714460115566467024e+01 1.598324499962830281e+01
3.316125578789226314e+00 4.072875112128865327e-02 1.719740991621519655e+01 1.563350067234284246e+01
3.333578871309169411e+00 4.102139607557638012e-02 1.724933206149464482e+01 1.530220002340748486e+01
3.351032163829112509e+00 4.131619797407400790e-02 1.730041220214888043e+01 1.498815803367625854e+01
3.368485456349056051e+00 4.161312595646932816e-02 1.735069225580584273e+01 1.469032542116396556e+01
3.385938748868999149e+00 4.191214857485513201e-02 1.740021177066191527e+01 1.440777373175836651e+01
3.403392041388942246e+00 4.221323379372920320e-02 1.744900804885810075e+01 1.413962887622921549e+01
3.420845333908885788e+00 4.251634898999433892e-02 1.749711634481757727e+01 1.388509157451786891e+01
3.438298626428828886e+00 4.282146095295830818e-02 1.754457006752302206e+01 1.364343690235449458e+01
