# angles(rad), pulling distance(m),                                     elastic band force(n), cable force(n)
0.000000000000000000e+00 2.379857599471550287e-04 7.633611332204533195e-02 1.224275393286153035e-01
1.745329251994329547e-02 4.786778665921512265e-04 1.529211417297868802e-01 2.432873712970070601e-01
3.490658503988659095e-02 7.219385528077945343e-04 2.297247395646255796e-01 3.626497726515897635e-01
5.235987755982988295e-02 9.677119813963323694e-04 3.067160153639854059e-01 4.804111141425196352e-01
6.981317007977318190e-02 1.215930464645510268e-03 3.838635318613137781e-01 5.965332994010937862e-01
8.726646259971647390e-02 1.466519968736854952e-03 4.611353059860812675e-01 7.109783654810056808e-01
1.047197551196597659e-01 1.719402259959163003e-03 5.384988088637819859e-01 8.237064356663131859e-01
1.221730476396030718e-01 1.974499278886799724e-03 6.159210627715913100e-01 9.346639390285657045e-01
1.396263401595463638e-01 2.231739090362585849e-03 6.933690289610003887e-01 1.043773527971383119e+00
1.570796326794896558e-01 2.491052764398984758e-03 7.708097046134738672e-01 1.150961756000038250e+00
1.745329251994329478e-01 2.752368180219372240e-03 8.482101228404506088e-01 1.256179587532087361e+00
1.919862177193762398e-01 3.015608032190543117e-03 9.255373526833426956e-01 1.359392186692250482e+00
2.094395102393195318e-01 3.280696078005402097e-03 1.002758499113536317e+00 1.460536642762246817e+00
2.268928027592628516e-01 3.547559371699667181e-03 1.079840703032391769e+00 1.559534473976472047e+00
2.443460952792061436e-01 3.816125227857678544e-03 1.156751141271242567e+00 1.656320696926543157e+00
2.617993877991494078e-01 4.086320031320014347e-03 1.233457030798712939e+00 1.750837128044847146e+00
2.792526803190927276e-01 4.358069234437225714e-03 1.309925650760294769e+00 1.843026688153933668e+00
2.967059728390360474e-01 4.631297357069834135e-03 1.386124349670621925e+00 1.932833102155560256e+00
3.141592653589793116e-01 4.905928789186430120e-03 1.462020545391353066e+00 2.020194786255260944e+00
3.316125578789225758e-01 5.181890233645084810e-03 1.537581542679671953e+00 2.105025848898883112e+00
3.490658503988658956e-01 5.459108438347523920e-03 1.612773914403833775e+00 2.187235427216116967e+00
3.665191429188092154e-01 5.737509428628147744e-03 1.687563370534733043e+00 2.266729485076537376e+00
3.839724354387524796e-01 6.017018507254032894e-03 1.761915318430906652e+00 2.343427208115608895e+00
4.014257279586957439e-01 6.297560254424928831e-03 1.835796816505943063e+00 2.417312580616038709e+00
4.188790204786390636e-01 6.579058527773258731e-03 1.909176935442743250e+00 2.488392360773524992e+00
4.363323129985823834e-01 6.861436462364121219e-03 1.982025079658919609e+00 2.556624140131091405e+00
4.537856055185257032e-01 7.144617179777859942e-03 2.054309191208752772e+00 2.621893116370372478e+00
4.712388980384689674e-01 7.428526736553922420e-03 2.125995929257206374e+00 2.684053946675577507e+00
4.886921905584122872e-01 7.713094890429282591e-03 2.197051333986141497e+00 2.742969823232715765e+00
5.061454830783556069e-01 7.998254611361428276e-03 2.267441323010133569e+00 2.798522338945748089e+00
5.235987755982988157e-01 8.283935935573626466e-03 2.337133098218239891e+00 2.850710576927102835e+00
5.410520681182421354e-01 8.570061769727577161e-03 2.406093939157462724e+00 2.899533030872498696e+00
5.585053606381854552e-01 8.856550346541201477e-03 2.474286095579032896e+00 2.944740525748917648e+00
5.759586531581287749e-01 9.143324396252039410e-03 2.541674644123913307e+00 2.986319112791788744e+00
5.934119456780720947e-01 9.430312698586020351e-03 2.608248521627761107e+00 3.025231623837509876e+00
6.108652381980153034e-01 9.717446446081889552e-03 2.674021522293691611e+00 3.062656704417263231e+00
6.283185307179586232e-01 1.000465624374168722e-02 2.739028590450271583e+00 3.099758777608451865e+00
6.457718232379019430e-01 1.029186269648416086e-02 2.803310521001853850e+00 3.137154658345016056e+00
6.632251157578451517e-01 1.057897939494637993e-02 2.866902366842185135e+00 3.174869562236546372e+00
6.806784082777884715e-01 1.086593696365614585e-02 2.929836811604847213e+00 3.212803443599911990e+00
6.981317007977317912e-01 1.115267147428281730e-02 2.992146168982994237e+00 3.251068463355597071e+00
7.155849933176750000e-01 1.143910301813864071e-02 3.053861600587854941e+00 3.289972609243378976e+00
7.330382858376184307e-01 1.172515896596779995e-02 3.115012749732471775e+00 3.329534146936112382e+00
7.504915783575616395e-01 1.201077023200675456e-02 3.175628073245313931e+00 3.369820205026072379e+00
7.679448708775049592e-01 1.229585014462072738e-02 3.235735026845890872e+00 3.411151865086839319e+00
7.853981633974482790e-01 1.258033055075501172e-02 3.295360099656770902e+00 3.453420369966650583e+00
8.028514559173914877e-01 1.286414766446365536e-02 3.354528840439098492e+00 3.496675109072875820e+00
8.203047484373349185e-01 1.314721854755554822e-02 3.413265928169366248e+00 3.541256134855380822e+00
8.377580409572781273e-01 1.342946081886033094e-02 3.471595257736364459e+00 3.587269599546688781e+00
8.552113334772214470e-01 1.371080446101164037e-02 3.529539974946727998e+00 3.634668872683648466e+00
8.726646259971647668e-01 1.399118174748444771e-02 3.587122551977913076e+00 3.683532344364876199e+00
8.901179185171079755e-01 1.427052401910167308e-02 3.644364809220159707e+00 3.733979585084491681e+00
9.075712110370514063e-01 1.454875883165937175e-02 3.701287986305197730e+00 3.786173799575880849e+00
9.250245035569946150e-01 1.482579388370636360e-02 3.757912773746765467e+00 3.840507012832234501e+00
9.424777960769379348e-01 1.510155622798387172e-02 3.814259354345733932e+00 3.896842273699460790e+00
9.599310885968812546e-01 1.537597552367774706e-02 3.870347455924150193e+00 3.955269266010375873e+00
9.773843811168245743e-01 1.564897937441462467e-02 3.926196367016602462e+00 4.015946867437309997e+00
9.948376736367677831e-01 1.592049554837553574e-02 3.981824996311900122e+00 4.079010531992723010e+00
1.012290966156711214e+00 1.619045123490847962e-02 4.037251891592121389e+00 4.144612411930887141e+00
1.029744258676654312e+00 1.645877339435193945e-02 4.092495274263812099e+00 4.212907405545124107e+00
1.047197551196597631e+00 1.672538879322347377e-02 4.147573083003950778e+00 4.284059322310743489e+00
1.064650843716540951e+00 1.699022398865387626e-02 4.202502984007819187e+00 4.358240084080410526e+00
1.082104136236484271e+00 1.725320562118076717e-02 4.257302419788950409e+00 4.435628608591578370e+00
1.099557428756427591e+00 1.751425861406833220e-02 4.311988628964899206e+00 4.516445291808043550e+00
1.117010721276370910e+00 1.777329966910353581e-02 4.366578667824904336e+00 4.601040926300928646e+00
1.134464013796314230e+00 1.803025498640107790e-02 4.421089454707854749e+00 4.689474177663699450e+00
1.151917306316257550e+00 1.828505126023575317e-02 4.475537777843774379e+00 4.781968030136211745e+00
1.169370598836200648e+00 1.853761481245192258e-02 4.529940331969315892e+00 4.878778468488349063e+00
1.186823891356144189e+00 1.878787216238273286e-02 4.584313747188934585e+00 4.980169312546132154e+00
1.204277183876087287e+00 1.903574986762762364e-02 4.638674598986090913e+00 5.086425625926929150e+00
1.221730476396030607e+00 1.928117469186177088e-02 4.693039452779417253e+00 5.197852427781582740e+00
1.239183768915973927e+00 1.952407360987925070e-02 4.747424877594478509e+00 5.314777044971989994e+00
1.256637061435917246e+00 1.976437410278961831e-02 4.801847468544542252e+00 5.437545662519206680e+00
1.274090353955860566e+00 2.000200371611014771e-02 4.856323887192176336e+00 5.566543863587001262e+00
1.291543646475803886e+00 2.023689174652195180e-02 4.910870868576242998e+00 5.702146281744314926e+00
1.308996938995747206e+00 2.046896617501971910e-02 4.965505259288994999e+00 5.844835128503405031e+00
1.326450231515690303e+00 2.069814167328667270e-02 5.020244044824160312e+00 5.995450302975190660e+00
1.343903524035633845e+00 2.092433616721563888e-02 5.075104361851106027e+00 6.154478594943600278e+00
1.361356816555576943e+00 2.114747831772269618e-02 5.130103546136671078e+00 6.322236961884128092e+00
1.378810109075520263e+00 2.136749848898776907e-02 5.185259145565258798e+00 6.499314920122966299e+00
1.396263401595463582e+00 2.158433302909894616e-02 5.240588951083378966e+00 6.686221837977955218e+00
1.413716694115406902e+00 2.179791073533370732e-02 5.296111038532876236e+00 6.883938061879341319e+00
1.431169986635350000e+00 2.200814450032526418e-02 5.351843779122925859e+00 7.093839589285375169e+00
1.448623279155293542e+00 2.221500890069049231e-02 5.407805892001408488e+00 7.314749256488724427e+00
1.466076571675236861e+00 2.241862743499646246e-02 5.464016467121968645e+00 7.541933968143084144e+00
1.483529864195180181e+00 2.261918308876849013e-02 5.520494996607162363e+00 7.773140112847494620e+00
1.500983156715123279e+00 2.281682032518340258e-02 5.577261428281044431e+00 8.009655354905723001e+00
1.518436449235066599e+00 2.301168057762642202e-02 5.634336180514964099e+00 8.251511980349567565e+00
1.535889741755009918e+00 2.320389991957803183e-02 5.691740206311264316e+00 8.498853401318482881e+00
1.553343034274953460e+00 2.339360551630869853e-02 5.749495021031719055e+00 8.752009044501436463e+00
1.570796326794896558e+00 2.358091852537125624e-02 5.807622750871059836e+00 9.011224793220407037e+00
1.588249619314839878e+00 2.376595433246416617e-02 5.866146190966928131e+00 9.276773522766754709e+00
1.605702911834782975e+00 2.394882263473254932e-02 5.925088836191779507e+00 9.548959684790609970e+00
1.623156204354726295e+00 2.412962805743496669e-02 5.984474963195789421e+00 9.828100974648323884e+00
1.640609496874669837e+00 2.430847049764404966e-02 6.044329659396799670e+00 1.011453196117757969e+01
1.658062789394613157e+00 2.448544545026938926e-02 6.104678912964964788e+00 1.040861461482320038e+01
1.675516081914556255e+00 2.466064433326415825e-02 6.165549656503348963e+00 1.071073015703498044e+01
1.692969374434499574e+00 2.483415475814626863e-02 6.226969856576973328e+00 1.102128977850307656e+01
1.710422666954442894e+00 2.500606083675440197e-02 6.288968578459691372e+00 1.134072794231678749e+01
1.727875959474386436e+00 2.517644337639397129e-02 6.351576077507081308e+00 1.166951420207606382e+01
1.745329251994329534e+00 2.534538016743770328e-02 6.414823883682843508e+00 1.200814621670521021e+01
1.762782544514272853e+00 2.551294613633272451e-02 6.478744902865406274e+00 1.235716237449268995e+01
1.780235837034215951e+00 2.567921360491530469e-02 6.543373517166803488e+00 1.271713483329184768e+01
1.797689129554159271e+00 2.584425241427091430e-02 6.608745706805088993e+00 1.308868439197154920e+01
1.815142422074102813e+00 2.600813015631589162e-02 6.674899162105147887e+00 1.347247154624387733e+01
1.832595714594046132e+00 2.617091227947743529e-02 6.741873436870317704e+00 1.386921595637535098e+01
1.850049007113989230e+00 2.633266229012209969e-02 6.809710071941446508e+00 1.427968428717155014e+01
1.867502299633932550e+00 2.649344185256215234e-02 6.878452784340168158e+00 1.470471415415072514e+01
1.884955592153875870e+00 2.665331095371897135e-02 6.948147618709654694e+00 1.514520298033377799e+01
1.902408884673818967e+00 2.681232801227233231e-02 7.018843157743789973e+00 1.560212800270861955e+01
1.919862177193762509e+00 2.697054999856350957e-02 7.090590734743293488e+00 1.607654905105074050e+01
1.937315469713705829e+00 2.712803256414382871e-02 7.163444655060271948e+00 1.656961277496716178e+01
1.954768762233649149e+00 2.728483011605375291e-02 7.237462474819481351e+00 1.708257515662525350e+01
1.972222054753592246e+00 2.744099596467353130e-02 7.312705281094214804e+00 1.761679879668322712e+01
1.989675347273535566e+00 2.759658236967796677e-02 7.389238003893843221e+00 1.817377629608345657e+01
2.007128639793478886e+00 2.775164068227773881e-02 7.467129781474980632e+00 1.875513806245935911e+01
2.024581932313422428e+00 2.790622139853788514e-02 7.546454356540952979e+00 1.936267665107512315e+01
2.042035224833365525e+00 2.806037426230123533e-02 7.627290514706129620e+00 1.999835901086670020e+01
2.059488517353308623e+00 2.821414835465367935e-02 7.709722580021491467e+00 2.066435072245563020e+01
2.076941809873252165e+00 2.836759214691873809e-02 7.793840973922535831e+00 2.136304686454911561e+01
2.094395102393195263e+00 2.852075362145463366e-02 7.879742845276877183e+00 2.209709257015639139e+01
2.111848394913138804e+00 2.867368030284794811e-02 7.967532780079157995e+00 2.286942922338052142e+01
2.129301687433081902e+00 2.882641936910951275e-02 8.057323606385351056e+00 2.368332353147923897e+01
2.146754979953025444e+00 2.897901770805265745e-02 8.149237310482595475e+00 2.454242267515761711e+01
2.164208272472968542e+00 2.913152198258802880e-02 8.243406082732976259e+00 2.545080891461306649e+01
2.181661564992911639e+00 2.928397873099115173e-02 8.339973515290248329e+00 2.641305938906985773e+01
2.199114857512855181e+00 2.943643439619586522e-02 8.439095980829819155e+00 2.743433638302961342e+01
2.216568150032798723e+00 2.958893543915159033e-02 8.540944226899567226e+00 2.852046689089845088e+01
2.234021442552741821e+00 2.974152838016502071e-02 8.645705221239850857e+00 2.967806602765291046e+01
2.251474735072684918e+00 2.989425987733056525e-02 8.753584296872563897e+00 3.091466396731815536e+01
2.268928027592628460e+00 3.004717681446563912e-02 8.864807681234823988e+00 3.223887198174033841e+01
2.286381320112572002e+00 3.020032633756096832e-02 8.979625449047608399e+00 3.366058636737461285e+01
2.303834612632515100e+00 3.035375597335128114e-02 9.098315037355824586e+00 3.519122171280060485e+01
2.321287905152458197e+00 3.050751366385555385e-02 9.221185406191418465e+00 3.684402543522330120e+01
2.338741197672401295e+00 3.066164786698707262e-02 9.348581862861038871e+00 3.863439068089738271e+01
2.356194490192344837e+00 3.081620763299264265e-02 9.480884869764333089e+00 4.057814037867260737e+01
2.373647782712288379e+00 3.097124266362431474e-02 9.618374456989108978e+00 4.264927508565941139e+01
2.391101075232231477e+00 3.112680343499776500e-02 9.761023225574268380e+00 4.475414755808251499e+01
2.408554367752174574e+00 3.128294123532663479e-02 9.908481686757500739e+00 4.678846054939940302e+01
2.426007660272118116e+00 3.143970830116708109e-02 1.006034349522242977e+01 4.872777163915986165e+01
2.443460952792061214e+00 3.159715787559226607e-02 1.021625567959337566e+01 5.058250379248729445e+01
2.460914245312004311e+00 3.175534432239961180e-02 1.037586545306455932e+01 5.234612597841802284e+01
2.478367537831947853e+00 3.191432323153937239e-02 1.053882392477053287e+01 5.401315965909602568e+01
2.495820830351891395e+00 3.207415150303413037e-02 1.070470390045504594e+01 5.555012283216746027e+01
2.513274122871834493e+00 3.223488749920486868e-02 1.087316080652621864e+01 5.697725065691172830e+01
2.530727415391777591e+00 3.239659111243445994e-02 1.104387824031857157e+01 5.829747754694551531e+01
2.548180707911721132e+00 3.255932394852008305e-02 1.121643423884996160e+01 5.946750073931193725e+01
2.565634000431664674e+00 3.272314940111916565e-02 1.139046891277172158e+01 6.050148226665883300e+01
2.583087292951607772e+00 3.288813285006308984e-02 1.156563241524648156e+01 6.139636112464761908e+01
2.600540585471550870e+00 3.305434175965345223e-02 1.174155248909082871e+01 6.213790782993944362e+01
2.617993877991494411e+00 3.322184588730426463e-02 1.191788203293734227e+01 6.272904232142962400e+01
2.635447170511437509e+00 3.339071741140994809e-02 1.209427608967168233e+01 6.316513201441843250e+01
2.652900463031380607e+00 3.356103115764692141e-02 1.227033581950123597e+01 6.342153986482660599e+01
2.670353755551324149e+00 3.373286475488413566e-02 1.244567287791523924e+01 6.349711894188206429e+01
2.687807048071267690e+00 3.390629889014509096e-02 1.261992691437733782e+01 6.339793493876434383e+01
2.705260340591210788e+00 3.408141748917732639e-02 1.279276557232878986e+01 6.313105647338666415e+01
2.722713633111153886e+00 3.425830802271529613e-02 1.296379903427155078e+01 6.267275541587156340e+01
2.740166925631096984e+00 3.443706171102320357e-02 1.313265288483212956e+01 6.202666441935814845e+01
2.757620218151040525e+00 3.461777385115700351e-02 1.329896270987509865e+01 6.119533972357047702e+01
2.775073510670984067e+00 3.480054410673318749e-02 1.346236424129018872e+01 6.017858120731328597e+01
2.792526803190927165e+00 3.498547696506068561e-02 1.362249499191426061e+01 5.897763026419244881e+01
2.809980095710870263e+00 3.517268185092235766e-02 1.377899134407796566e+01 5.759363255713260799e+01
2.827433388230813804e+00 3.536227346301308583e-02 1.393148824421869314e+01 5.602855390495025034e+01
2.844886680750756902e+00 3.555437359515638274e-02 1.407961907067716822e+01 5.428485618125890966e+01
2.862339973270700000e+00 3.574910939700631785e-02 1.422301620905456154e+01 5.236684277104201612e+01
2.879793265790643542e+00 3.594661107305210934e-02 1.436131165433833701e+01 5.028068697592551928e+01
2.897246558310587083e+00 3.614703156155225222e-02 1.449413800737970348e+01 4.802910886022179682e+01
2.914699850830530625e+00 3.635048055210366585e-02 1.462127486044285618e+01 4.568474064407651269e+01
2.932153143350473723e+00 3.655691922995624871e-02 1.474283030840200226e+01 4.340444729071507624e+01
2.949606435870416821e+00 3.676631126590307330e-02 1.485893439223825929e+01 4.119504728517914316e+01
2.967059728390360362e+00 3.697862761647582180e-02 1.496970470985537816e+01 3.905019422366633108e+01
2.984513020910303460e+00 3.719379861954942579e-02 1.507527077423954864e+01 3.698074978573659166e+01
3.001966313430246558e+00 3.741177857809115798e-02 1.517612587513735001e+01 3.510849613455786766e+01
3.019419605950190100e+00 3.763253953682706154e-02 1.527270195628104865e+01 3.340667008920282655e+01
3.036872898470133197e+00 3.785603890595762994e-02 1.536537443914414069e+01 3.185573643755421358e+01
3.054326190990076295e+00 3.808222577967645267e-02 1.545447271501334008e+01 3.043869988421663209e+01
3.071779483510019837e+00 3.831104763807266500e-02 1.554028741513216261e+01 2.914024721319962197e+01
3.089232776029963379e+00 3.854245887258263975e-02 1.562307628389713088e+01 2.794628391554829605e+01
3.106686068549906921e+00 3.877641929943090315e-02 1.570306896871841218e+01 2.684493834412885604e+01
3.124139361069850018e+00 3.901288801929102962e-02 1.578047099070927572e+01 2.582667938853642653e+01
3.141592653589793116e+00 3.925182184805894869e-02 1.585546701586767959e+01 2.488339573663433768e+01
3.159045946109736214e+00 3.949317382236757629e-02 1.592822360550048799e+01 2.400815721033003314e+01
3.176499238629679756e+00 3.973689519882590837e-02 1.599889152676551873e+01 2.319469106835853722e+01
3.193952531149622853e+00 3.998294092090692864e-02 1.606760770239005964e+01 2.243697926152317024e+01
3.211405823669565951e+00 4.023126993457932371e-02 1.613449687113418918e+01 2.172970181484016550e+01
3.228859116189509493e+00 4.048184031401231425e-02 1.619967300778897368e+01 2.106857370986327638e+01
3.246312408709452590e+00 4.073460668294320158e-02 1.626324054299839261e+01 2.044999341108877289e+01
3.263765701229396576e+00 4.098952085877041046e-02 1.632529541568461084e+01 1.987069030778303613e+01
3.281218993749339674e+00 4.124653532688963425e-02 1.638592598406626166e+01 1.932747236262030199e+01
3.298672286269282772e+00 4.150560436742195547e-02 1.644521381572055674e+01 1.881739837037081031e+01
3.316125578789226314e+00 4.176668404986413896e-02 1.650323438283544775e+01 1.833783098641018938e+01
3.333578871309169411e+00 4.202973152567583692e-02 1.656005767617716629e+01 1.788644829579810391e+01
3.351032163829112509e+00 4.229470366012964139e-02 1.661574873410155462e+01 1.746124412507251478e+01
3.368485456349056051e+00 4.256155687591906683e-02 1.667036810174507977e+01 1.706040831114920664e+01
3.385938748868999149e+00 4.283024715315852243e-02 1.672397226819514060e+01 1.668230429438917994e+01
3.403392041388942246e+00 4.310073002938334674e-02 1.677661403196435685e+01 1.632544294567321685e+01
3.420845333908885788e+00 4.337296059954977995e-02 1.682834281069425586e+01 1.598846193344612487e+01
3.438298626428828886e+00 4.364689351603497774e-02 1.687920497080569504e+01 1.567012896431764446e+01
