# angles(rad), pulling distance(m),                                     elastic band force(n), cable force(n)
0.000000000000000000e+00 2.351137467367755876e-04 7.720270740165599554e-02 1.267526487257801537e-01
1.745329251994329547e-02 4.727233935538936640e-04 1.545764831663500316e-01 2.516767796934943902e-01
3.490658503988659095e-02 7.127579697207903813e-04 2.320931132814216258e-01 3.747600929372382761e-01
5.235987755982988295e-02 9.551457589334053956e-04 3.097241384896460281e-01 4.959862557596596000e-01
6.981317007977318190e-02 1.199816069568060114e-03 3.874408542892341378e-01 6.153307012167008594e-01
8.726646259971647390e-02 1.446705578834332198e-03 4.652143109338325866e-01 7.327432653859209388e-01
1.047197551196597659e-01 1.695747894026383576e-03 5.430153484470106040e-01 8.481923536202680136e-01
1.221730476396030718e-01 1.946868524656231473e-03 6.208147366802081457e-01 9.616694295234262668e-01
1.396263401595463638e-01 2.200003232461477439e-03 6.985832103272224813e-01 1.073099585071071393e+00
1.570796326794896558e-01 2.455084141411825564e-03 7.762914689242084165e-01 1.182453411782742325e+00
1.745329251994329478e-01 2.712035438927876910e-03 8.539101768496781819e-01 1.289726988192014812e+00
1.919862177193762398e-01 2.970784994579772024e-03 9.314099633245018772e-01 1.394863714766800156e+00
2.094395102393195318e-01 3.231266010338999621e-03 1.008761422619276482e+00 1.497789923239534193e+00
2.268928027592628516e-01 3.493412420143650766e-03 1.085935246759295536e+00 1.598453624127475603e+00
2.443460952792061436e-01 3.757157049923334248e-03 1.162902585880212225e+00 1.696821614278947843e+00
2.617993877991494078e-01 4.022431612741373189e-03 1.239635108810545505e+00 1.792865633281579552e+00
2.792526803190927276e-01 4.289166708794802003e-03 1.316104885519761236e+00 1.886558015999601157e+00
2.967059728390360474e-01 4.557291825414369439e-03 1.392283301850455235e+00 1.977844119115562460e+00
3.141592653589793116e-01 4.826736038393977107e-03 1.468140473419668135e+00 2.066642711460457527e+00
3.316125578789225758e-01 5.097430246457826386e-03 1.543645730447085640e+00 2.152860389410162778e+00
3.490658503988658956e-01 5.369305589187430179e-03 1.618769179908528422e+00 2.236457404626527534e+00
3.665191429188092154e-01 5.642292876171003946e-03 1.693481996567314907e+00 2.317412127915370768e+00
3.839724354387524796e-01 5.916322587003466568e-03 1.767756287775988255e+00 2.395704555271956249e+00
4.014257279586957439e-01 6.191324871286437749e-03 1.841564675343413171e+00 2.471305277383883503e+00
4.188790204786390636e-01 6.467229548628241481e-03 1.914877611126508006e+00 2.544090602043100890e+00
4.363323129985823834e-01 6.743966109180314639e-03 1.987662986687921407e+00 2.613908272311175729e+00
4.537856055185257032e-01 7.021464341661961574e-03 2.059889981161496575e+00 2.680731710522958444e+00
4.712388980384689674e-01 7.299656174014921249e-03 2.131530782273258762e+00 2.744591233050490686e+00
4.886921905584122872e-01 7.578476008868009414e-03 2.202561159905456645e+00 2.805552751089782859e+00
5.061454830783556069e-01 7.857860247491644731e-03 2.272951512378688754e+00 2.863330066490150649e+00
5.235987755982988157e-01 8.137742233433000252e-03 2.342665687773886063e+00 2.917604827271715440e+00
5.410520681182421354e-01 8.418049203739676536e-03 2.411678093439511006e+00 2.968811420159400694e+00
5.585053606381854552e-01 8.698704544848537626e-03 2.479963214243067871e+00 3.016949312346775880e+00
5.759586531581287749e-01 8.979636327685206268e-03 2.547488394586411076e+00 3.061590460325938068e+00
5.934119456780720947e-01 9.260778712225995954e-03 2.614226297544386846e+00 3.102840243044040491e+00
6.108652381980153034e-01 9.542067090969622023e-03 2.680182671224812019e+00 3.142240191092681378e+00
6.283185307179586232e-01 9.823435487974881142e-03 2.745390159827825638e+00 3.181238537504509800e+00
6.457718232379019430e-01 1.010481502639413651e-02 2.809885631686340979e+00 3.220292788561760933e+00
6.632251157578451517e-01 1.038613328389793172e-02 2.873703870175811304e+00 3.259559485443623394e+00
6.806784082777884715e-01 1.066731519615277297e-02 2.936877803444436719e+00 3.299183096186368847e+00
6.981317007977317912e-01 1.094828970259779238e-02 2.999439236059501912e+00 3.339256967187466341e+00
7.155849933176750000e-01 1.122900306275040685e-02 3.061418635505787300e+00 3.379691090925577512e+00
7.330382858376184307e-01 1.150938838129280696e-02 3.122845258343946551e+00 3.420753962144750027e+00
7.504915783575616395e-01 1.178935399794811371e-02 3.183747267337502684e+00 3.462864601465073022e+00
7.679448708775049592e-01 1.206884008056632006e-02 3.244151793062112432e+00 3.505746128801953798e+00
7.853981633974482790e-01 1.234778934164956765e-02 3.304085005352498605e+00 3.549470381858722767e+00
8.028514559173914877e-01 1.262612213397359268e-02 3.363572180427119029e+00 3.594427474795243160e+00
8.203047484373349185e-01 1.290376492644616964e-02 3.422637769526159168e+00 3.640651254248863822e+00
8.377580409572781273e-01 1.318065514735211954e-02 3.481305449675942132e+00 3.688106318038895104e+00
8.552113334772214470e-01 1.345673196038446942e-02 3.539598184329201924e+00 3.736874087178160941e+00
8.726646259971647668e-01 1.373192352588897477e-02 3.597538273295968647e+00 3.787210687834511091e+00
8.901179185171079755e-01 1.400614675700016798e-02 3.655147398980938878e+00 3.839387440876610214e+00
9.075712110370514063e-01 1.427933507652873711e-02 3.712446677660989458e+00 3.893294507159212436e+00
9.250245035569946150e-01 1.455142633437210391e-02 3.769456695199825624e+00 3.948983771263506526e+00
9.424777960769379348e-01 1.482235422855801045e-02 3.826197556570432035e+00 4.006633310797867331e+00
9.599310885968812546e-01 1.509205387793688923e-02 3.882688916381339173e+00 4.066345230968178903e+00
9.773843811168245743e-01 1.536045632667415277e-02 3.938950023454532712e+00 4.128309746578818995e+00
9.948376736367677831e-01 1.562747670937416136e-02 3.994999749945474132e+00 4.192912935178275013e+00
1.012290966156711214e+00 1.589304743931767294e-02 4.050856629963299760e+00 4.260036729149335955e+00
1.029744258676654312e+00 1.615710280436866500e-02 4.106538888704020174e+00 4.329799564676368284e+00
1.047197551196597631e+00 1.641957528328183424e-02 4.162064475679978948e+00 4.402386756905879217e+00
1.064650843716540951e+00 1.668039772889788608e-02 4.217451094109224030e+00 4.477957292780096132e+00
1.082104136236484271e+00 1.693950259241792239e-02 4.272716229837199009e+00 4.556692590813064214e+00
1.099557428756427591e+00 1.719682231593485516e-02 4.327877180885607800e+00 4.638778132812817923e+00
1.117010721276370910e+00 1.745228919207476165e-02 4.382951083157538896e+00 4.724413263742934355e+00
1.134464013796314230e+00 1.770583572755174417e-02 4.437954940051310970e+00 4.813803469338957974e+00
1.151917306316257550e+00 1.795739159508681279e-02 4.492905645874554210e+00 4.907226749613029071e+00
1.169370598836200648e+00 1.820687621642027090e-02 4.547820015541873317e+00 5.005131542358665087e+00
1.186823891356144189e+00 1.845422108550308360e-02 4.602714806431341010e+00 5.107546151246697974e+00
1.204277183876087287e+00 1.869935896882377394e-02 4.657606748316248435e+00 5.214719885152614864e+00
1.221730476396030607e+00 1.894222209114664393e-02 4.712512564230224577e+00 5.326958347343126121e+00
1.239183768915973927e+00 1.918274319971986427e-02 4.767449000903938305e+00 5.444567042097900433e+00
1.256637061435917246e+00 1.942085559043715826e-02 4.822432849074786532e+00 5.567873112123183255e+00
1.274090353955860566e+00 1.965649225408017467e-02 4.877480974803312108e+00 5.697249778290625954e+00
1.291543646475803886e+00 1.988958894501551000e-02 4.932610339572578440e+00 5.833023059739312011e+00
1.308996938995747206e+00 2.012007880417826522e-02 4.987838032941320776e+00 5.975681326216646383e+00
1.326450231515690303e+00 2.034787384845003141e-02 5.043181292737202170e+00 6.126254707909779107e+00
1.343903524035633845e+00 2.057290389878438375e-02 5.098657539544887207e+00 6.284813597814816077e+00
1.361356816555576943e+00 2.079510522405794357e-02 5.154284397340255452e+00 6.451731213905699036e+00
1.378810109075520263e+00 2.101441440933054725e-02 5.210079730259685071e+00 6.627586818246429701e+00
1.396263401595463582e+00 2.123077110046177676e-02 5.266061664229569672e+00 6.812923483596508234e+00
1.413716694115406902e+00 2.144410765486704298e-02 5.322248626209533207e+00 7.008667174793565380e+00
1.431169986635350000e+00 2.165433187470554646e-02 5.378659367884472076e+00 7.216441673378717780e+00
1.448623279155293542e+00 2.186136213083721136e-02 5.435313007008017117e+00 7.436842019523691505e+00
1.466076571675236861e+00 2.206520040451838069e-02 5.492229055017635808e+00 7.667744799098624497e+00
1.483529864195180181e+00 2.226594940981634074e-02 5.549427459421855779e+00 7.905852274704088245e+00
1.500983156715123279e+00 2.246376291535455774e-02 5.606928637972881546e+00 8.149216198806271905e+00
1.518436449235066599e+00 2.265878767938146396e-02 5.664753520649283836e+00 8.398002924312907069e+00
1.535889741755009918e+00 2.285115675133285798e-02 5.722923593222178695e+00 8.652713177068902084e+00
1.553343034274953460e+00 2.304099888614448421e-02 5.781460938086254053e+00 8.913494706713732896e+00
1.570796326794896558e+00 2.322843624987034131e-02 5.840388288515293347e+00 9.180629744194456876e+00
1.588249619314839878e+00 2.341358452200898582e-02 5.899729071045952900e+00 9.454437131678641748e+00
1.605702911834782975e+00 2.359655399480831486e-02 5.959507467084369736e+00 9.735225010786114908e+00
1.623156204354726295e+00 2.377744986255479406e-02 6.019748465184069808e+00 1.002332613700291652e+01
1.640609496874669837e+00 2.395637246470999626e-02 6.080477922903056331e+00 1.031910229569149884e+01
1.658062789394613157e+00 2.413341774167261644e-02 6.141722636499253873e+00 1.062293358831305845e+01
1.675516081914556255e+00 2.430867750545753075e-02 6.203510404475146345e+00 1.093522703756894643e+01
1.692969374434499574e+00 2.448223975770798602e-02 6.265870109239609853e+00 1.125641679104318271e+01
1.710422666954442894e+00 2.465418893782688609e-02 6.328831797216611932e+00 1.158696809719423726e+01
1.727875959474386436e+00 2.482460618594850565e-02 6.392426762573505172e+00 1.192737715792156195e+01
1.745329251994329534e+00 2.499356957253434305e-02 6.456687647933826213e+00 1.227817674394465897e+01
1.762782544514272853e+00 2.516115430851275162e-02 6.521648545298821986e+00 1.263993821777175341e+01
1.780235837034215951e+00 2.532743295133660019e-02 6.587345104336263191e+00 1.301327395982791302e+01
1.797689129554159271e+00 2.549247558654614554e-02 6.653814656966527963e+00 1.339884336467767412e+01
1.815142422074102813e+00 2.565635000181232250e-02 6.721096349828119543e+00 1.379735633435463349e+01
1.832595714594046132e+00 2.581912185628346124e-02 6.789231285919824721e+00 1.420957699600264235e+01
1.850049007113989230e+00 2.598085481652824547e-02 6.858262681008358896e+00 1.463633139581106235e+01
1.867502299633932550e+00 2.614161072693691953e-02 6.928236037533769043e+00 1.507851030528529890e+01
1.884955592153875870e+00 2.630144970538000199e-02 6.999199333584630978e+00 1.553708173269610704e+01
1.902408884673818967e+00 2.646043031919421973e-02 7.071203229475235830e+00 1.601309017939218293e+01
1.919862177193762509e+00 2.661860964914230382e-02 7.144301295840856270e+00 1.650767551078795492e+01
1.937315469713705829e+00 2.677604346012407710e-02 7.218550265699431812e+00 1.702207161721409534e+01
1.954768762233649149e+00 2.693278625869384435e-02 7.294010313340286267e+00 1.755762850860887880e+01
1.972222054753592246e+00 2.708889143204602432e-02 7.370745363431983499e+00 1.811581584807877121e+01
1.989675347273535566e+00 2.724441132959746700e-02 7.448823434372048524e+00 1.869824291571887187e+01
2.007128639793478886e+00 2.739939735029400456e-02 7.528317020631916989e+00 1.930667410459600219e+01
2.024581932313422428e+00 2.755390006055769003e-02 7.609303519680417516e+00 1.994304343285006453e+01
2.042035224833365525e+00 2.770796923707497667e-02 7.691865709995801659e+00 2.060948513467907972e+01
2.059488517353308623e+00 2.786165399992295011e-02 7.776092287696512173e+00 2.130834668123415199e+01
2.076941809873252165e+00 2.801500285181592748e-02 7.862078470430051702e+00 2.204222945521748755e+01
2.094395102393195263e+00 2.816806378001820987e-02 7.949926678352690956e+00 2.281401334789678259e+01
2.111848394913138804e+00 2.832088433388769977e-02 8.039747305212863182e+00 2.362689849194993386e+01
2.129301687433081902e+00 2.847351167477875367e-02 8.131659598408841561e+00 2.448445595708615841e+01
2.146754979953025444e+00 2.862599269107508893e-02 8.225792656005086911e+00 2.539066936561074428e+01
2.164208272472968542e+00 2.877837402625844573e-02 8.322286570729591659e+00 2.635001228013183905e+01
2.181661564992911639e+00 2.893070218439897784e-02 8.421293744094196398e+00 2.736751037541522535e+01
2.199114857512855181e+00 2.908302358869634119e-02 8.522980400311697124e+00 2.844883757187061235e+01
2.216568150032798723e+00 2.923538463901646789e-02 8.627528337581118478e+00 2.960042246796048104e+01
2.234021442552741821e+00 2.938783181681871651e-02 8.735136968409468849e+00 3.082956807793406284e+01
2.251474735072684918e+00 2.954041171214590034e-02 8.846025700742636388e+00 3.214462082433974643e+01
2.268928027592628460e+00 2.969317113501884764e-02 8.960436734728025598e+00 3.355514221317648804e+01
2.286381320112572002e+00 2.984615716510305092e-02 9.078638364537200189e+00 3.507215170384355218e+01
2.303834612632515100e+00 2.999941722258266455e-02 9.200928899959219365e+00 3.670840726735404758e+01
2.321287905152458197e+00 3.015299916882275416e-02 9.327641342986886741e+00 3.847874868078733357e+01
2.338741197672401295e+00 3.030695133987243092e-02 9.459149009161258448e+00 4.040055433154712006e+01
2.356194490192344837e+00 3.046132267162615995e-02 9.595872249923191433e+00 4.249424867436005115e+01
2.373647782712288379e+00 3.061616274278518984e-02 9.737989472734494001e+00 4.468920768608214900e+01
2.391101075232231477e+00 3.077152187511277698e-02 9.885417440019434565e+00 4.690380852128248534e+01
2.408554367752174574e+00 3.092745122552602657e-02 1.003779725761045150e+01 4.904649801582008450e+01
2.426007660272118116e+00 3.108400284573867994e-02 1.019474123230870966e+01 5.110145803171387513e+01
2.443460952792061214e+00 3.124122982085188183e-02 1.035589145520340715e+01 5.307149791178526499e+01
2.460914245312004311e+00 3.139918631336553051e-02 1.052086335354250579e+01 5.494066030398254696e+01
2.478367537831947853e+00 3.155792771414604042e-02 1.068929788986439711e+01 5.671006192566392201e+01
2.495820830351891395e+00 3.171751071070904454e-02 1.086081306111401545e+01 5.836443268414251406e+01
2.513274122871834493e+00 3.187799342017311188e-02 1.103502258128766123e+01 5.989448942541325493e+01
2.530727415391777591e+00 3.203943550483173003e-02 1.121156454378679790e+01 6.130098020696531336e+01
2.548180707911721132e+00 3.220189828131764243e-02 1.139007424648285571e+01 6.257552688083023185e+01
2.565634000431664674e+00 3.236544488425462801e-02 1.157016898028542329e+01 6.370436515144434253e+01
2.583087292951607772e+00 3.253014036277938892e-02 1.175146413367989595e+01 6.467947729375215715e+01
2.600540585471550870e+00 3.269605188309983312e-02 1.193359518077230597e+01 6.550112317858086897e+01
2.617993877991494411e+00 3.286324882884572585e-02 1.211619625451172766e+01 6.616240613252307412e+01
2.635447170511437509e+00 3.303180303433468634e-02 1.229887386491286883e+01 6.664707302169519210e+01
2.652900463031380607e+00 3.320178890220562562e-02 1.248125434136716727e+01 6.695665769268846645e+01
2.670353755551324149e+00 3.337328366402368685e-02 1.266301962434624961e+01 6.710692854370759619e+01
2.687807048071267690e+00 3.354636752552263290e-02 1.284377182126616113e+01 6.706402183677928974e+01
2.705260340591210788e+00 3.372112395996058193e-02 1.302311142695366719e+01 6.682328108964871660e+01
2.722713633111153886e+00 3.389763988791763549e-02 1.320067507998754230e+01 6.639514396361217052e+01
2.740166925631096984e+00 3.407600598806623249e-02 1.337606866985579046e+01 6.576576772087456391e+01
2.757620218151040525e+00 3.425631695620453415e-02 1.354890989020949554e+01 6.493809400684952493e+01
2.775073510670984067e+00 3.443867186875109593e-02 1.371884157652266900e+01 6.392111544476541951e+01
2.792526803190927165e+00 3.462317441270662544e-02 1.388550470113685620e+01 6.271462579112691316e+01
2.809980095710870263e+00 3.480993321067294560e-02 1.404852067879998323e+01 6.131259566117536508e+01
2.827433388230813804e+00 3.499906279956744443e-02 1.420749913146412879e+01 5.971266160281503232e+01
2.844886680750756902e+00 3.519068331025644591e-02 1.436215231301175876e+01 5.795706683727078712e+01
2.862339973270700000e+00 3.538491938222451672e-02 1.451197087696082555e+01 5.596701515911796321e+01
2.879793265790643542e+00 3.558190774110132210e-02 1.465668147519521014e+01 5.383508844126143345e+01
2.897246558310587083e+00 3.578178950140956105e-02 1.479590303147210761e+01 5.152817954442180337e+01
2.914699850830530625e+00 3.598466883421239798e-02 1.492936789231672989e+01 4.910667786409434399e+01
2.932153143350473723e+00 3.619056663202457197e-02 1.505715328502281203e+01 4.672425509177893588e+01
2.949606435870416821e+00 3.639943735415235304e-02 1.517937480042595411e+01 4.441135100412390102e+01
2.967059728390360362e+00 3.661124872974173133e-02 1.529614878630211372e+01 4.216469151765564050e+01
2.984513020910303460e+00 3.682597341911464373e-02 1.540759148394125688e+01 3.998290937355391605e+01
3.001966313430246558e+00 3.704358393637243591e-02 1.551384076658783329e+01 3.787350155026002341e+01
3.019419605950190100e+00 3.726405689297618284e-02 1.561526084147189053e+01 3.591599052038152706e+01
3.036872898470133197e+00 3.748736077156342855e-02 1.571229021207188659e+01 3.413629981724980667e+01
3.054326190990076295e+00 3.771345597886436446e-02 1.580531978464946619e+01 3.251643768947347723e+01
3.071779483510019837e+00 3.794231484826474099e-02 1.589469235576067341e+01 3.103549201693357062e+01
3.089232776029963379e+00 3.817391557922752976e-02 1.598070977898264999e+01 2.967649261580197262e+01
3.106686068549906921e+00 3.840823049705024972e-02 1.606363920561014069e+01 2.842645276815155952e+01
3.124139361069850018e+00 3.864522935943707355e-02 1.614371821556118292e+01 2.727382230047797051e+01
3.141592653589793116e+00 3.888488210950063334e-02 1.622115904829555078e+01 2.620833819523079811e+01
3.159045946109736214e+00 3.912715818191437461e-02 1.629615210212549670e+01 2.522119084316163651e+01
3.176499238629679756e+00 3.937202646346731755e-02 1.636886884799358555e+01 2.430471738966927830e+01
3.193952531149622853e+00 3.961945878449887187e-02 1.643946427224378226e+01 2.345188676052084276e+01
3.211405823669565951e+00 3.986943170667146819e-02 1.650807894031528633e+01 2.265638108206450241e+01
3.228859116189509493e+00 4.012192127825170429e-02 1.657484075154819081e+01 2.191311075829302979e+01
3.246312408709452590e+00 4.037689754442627676e-02 1.663986643565808521e+01 2.121802775430014876e+01
3.263765701229396576e+00 4.063432575838997474e-02 1.670326282461795131e+01 2.056741432152596616e+01
3.281218993749339674e+00 4.089417232981489708e-02 1.676512794096138137e+01 1.995748077206611271e+01
3.298672286269282772e+00 4.115640633138431537e-02 1.682555199057352624e+01 1.938474763275527479e+01
3.316125578789226314e+00 4.142099899661047524e-02 1.688461817298058421e+01 1.884613725075039525e+01
3.333578871309169411e+00 4.168792206677975065e-02 1.694240337087560633e+01 1.833899428368023621e+01
3.351032163829112509e+00 4.195714745131347290e-02 1.699897885488920579e+01 1.786097284470362823e+01
3.368485456349056051e+00 4.222864722620386230e-02 1.705441075883672752e+01 1.740993080835925966e+01
3.385938748868999149e+00 4.250239349921560578e-02 1.710876063688212412e+01 1.698395824520563835e+01
3.403392041388942246e+00 4.277835817321096190e-02 1.716208584673297466e+01 1.658132209470335638e+01
3.420845333908885788e+00 4.305651292216382264e-02 1.721443996982520375e+01 1.620045878304888021e+01
3.438298626428828886e+00 4.333682919115972032e-02 1.726587311910944678e+01 1.583993381545371903e+01
