# angles(rad), pulling distance(m),                                     elastic band force(n), cable force(n)
0.000000000000000000e+00 2.425349567990941970e-04 7.253889720896171400e-02 1.084769733348385640e-01
1.745329251994329547e-02 4.875154544435722341e-04 1.451472384388153569e-01 2.150967182789945142e-01
3.490658503988659095e-02 7.348468009422357569e-04 2.177926952125943394e-01 3.198472423671707698e-01
5.235987755982988295e-02 9.844714676677647578e-04 2.904426656424360931e-01 4.226475561745724474e-01
6.981317007977318190e-02 1.236318732370612211e-03 3.630643740300251721e-01 5.234592308921940385e-01
8.726646259971647390e-02 1.490313376572422171e-03 4.356252692683650340e-01 6.222446072807824580e-01
1.047197551196597659e-01 1.746378785641218350e-03 5.080931244422213222e-01 7.189651091651080295e-01
1.221730476396030718e-01 2.004441997692321589e-03 5.804360368281216154e-01 8.135687575174564978e-01
1.396263401595463638e-01 2.264436858202940449e-03 6.526224278943553170e-01 9.059882511918480041e-01
1.570796326794896558e-01 2.526296595071991172e-03 7.246210433009738772e-01 9.961766638118046968e-01
1.745329251994329478e-01 2.789943979790090230e-03 7.964009365914817007e-01 1.084129362901142812e+00
1.919862177193762398e-01 3.055301883912652124e-03 8.679309200623741560e-01 1.169799041246263549e+00
2.094395102393195318e-01 3.322296421435266215e-03 9.391788969639346396e-01 1.253107965769745036e+00
2.268928027592628516e-01 3.590854422715530642e-03 1.010111822254191383e+00 1.333979737732489568e+00
2.443460952792061436e-01 3.860902786951034976e-03 1.080696253704350296e+00 1.412345726551330394e+00
2.617993877991494078e-01 4.132368482179034526e-03 1.150899798769676297e+00 1.488166779613557145e+00
2.792526803190927276e-01 4.405178545276448171e-03 1.220691276563623973e+00 1.561413225639247671e+00
2.967059728390360474e-01 4.679260293326999165e-03 1.290039617079239198e+00 1.632033276206060979e+00
3.141592653589793116e-01 4.954541837556506595e-03 1.358913013703878958e+00 1.699949686659371739e+00
3.316125578789225758e-01 5.230950968566962581e-03 1.427279153636481945e+00 1.765093034077581002e+00
3.490658503988658956e-01 5.508414824803265289e-03 1.495105596950168314e+00 1.827403691332538438e+00
3.665191429188092154e-01 5.786859892553217199e-03 1.562361499157591371e+00 1.886871853200636995e+00
3.839724354387524796e-01 6.066212005947529441e-03 1.629018554264313856e+00 1.943525291827647772e+00
4.014257279586957439e-01 6.346396346959814853e-03 1.695042326572669289e+00 1.997133177006350291e+00
4.188790204786390636e-01 6.627337445417048369e-03 1.760393297481545716e+00 2.047464963361520951e+00
4.363323129985823834e-01 6.908959929344668169e-03 1.825047175962541512e+00 2.094938882207523445e+00
4.537856055185257032e-01 7.191191312503661393e-03 1.888975160199248604e+00 2.139350573155795132e+00
4.712388980384689674e-01 7.473962641572548353e-03 1.952132709509569741e+00 2.180063980798876866e+00
4.886921905584122872e-01 7.757208051764647935e-03 2.014508554996193634e+00 2.218159056358645742e+00
5.061454830783556069e-01 8.040858670390477192e-03 2.076126197682754082e+00 2.254992477026344755e+00
5.235987755982988157e-01 8.324838191404554735e-03 2.137025843188077534e+00 2.291434886239891444e+00
5.410520681182421354e-01 8.609065072719000039e-03 2.197242455910710657e+00 2.327550747723336588e+00
5.585053606381854552e-01 8.893462886845763041e-03 2.256808350497504723e+00 2.363393838329800989e+00
5.759586531581287749e-01 9.177962600113973718e-03 2.315755487318026606e+00 2.399073693004378782e+00
5.934119456780720947e-01 9.462496033418843142e-03 2.374114211344413583e+00 2.434692374419836103e+00
6.108652381980153034e-01 9.746992201546615664e-03 2.431913522311574205e+00 2.470383465027913505e+00
6.283185307179586232e-01 1.003137932204749283e-02 2.489181336643897957e+00 2.506266359308769509e+00
6.457718232379019430e-01 1.031558503666486423e-02 2.545944482350957383e+00 2.542450946286113123e+00
6.632251157578451517e-01 1.059952960971078176e-02 2.602228765439612790e+00 2.579105121191387351e+00
6.806784082777884715e-01 1.088313271665743848e-02 2.658059060714759170e+00 2.616336326780724253e+00
6.981317007977317912e-01 1.116633789107369761e-02 2.713459377269110018e+00 2.654021219208504867e+00
7.155849933176750000e-01 1.144907800440962166e-02 2.768452907966558296e+00 2.692348782463229284e+00
7.330382858376184307e-01 1.173125470973631485e-02 2.823062098783367446e+00 2.731712680918794156e+00
7.504915783575616395e-01 1.201280531272926923e-02 2.877308691607353364e+00 2.771867496700865185e+00
7.679448708775049592e-01 1.229367039713299102e-02 2.931213783633783709e+00 2.812869194677069640e+00
7.853981633974482790e-01 1.257376165217315676e-02 2.984797866279256251e+00 2.855099055552492882e+00
8.028514559173914877e-01 1.285300426913213792e-02 3.038080875683790705e+00 2.898520534467227350e+00
8.203047484373349185e-01 1.313133477554670296e-02 3.091082230075996140e+00 2.943111533877001307e+00
8.377580409572781273e-01 1.340868636072230918e-02 3.143820872094878371e+00 2.989001188508125129e+00
8.552113334772214470e-01 1.368497976767910074e-02 3.196315304523574152e+00 3.036423482236011662e+00
8.726646259971647668e-01 1.396013183809225247e-02 3.248583626716552430e+00 3.085530401735609107e+00
8.901179185171079755e-01 1.423407274207220442e-02 3.300643568104518089e+00 3.136284289816421378e+00
9.075712110370514063e-01 1.450673603632185449e-02 3.352512520702558785e+00 3.188755448348791877e+00
9.250245035569946150e-01 1.477805276428828703e-02 3.404207569859590166e+00 3.243085654608095947e+00
9.424777960769379348e-01 1.504795285986187080e-02 3.455745524536387503e+00 3.299407060964612004e+00
9.599310885968812546e-01 1.531635850402838367e-02 3.507142944920799810e+00 3.357941686511076718e+00
9.773843811168245743e-01 1.558318615607307868e-02 3.558416171826892072e+00 3.418901272155745463e+00
9.948376736367677831e-01 1.584836448994090402e-02 3.609581350974468972e+00 3.482276884702305786e+00
1.012290966156711214e+00 1.611182393771585369e-02 3.660654462548926791e+00 3.548193381947022829e+00
1.029744258676654312e+00 1.637349346484932855e-02 3.711651342158445832e+00 3.616826130312317478e+00
1.047197551196597631e+00 1.663330220679805696e-02 3.762587711252018963e+00 3.688339256211329520e+00
1.064650843716540951e+00 1.689117916216771598e-02 3.813479195052531967e+00 3.762911160487532936e+00
1.082104136236484271e+00 1.714705285222079684e-02 3.864341354142647234e+00 3.840737683740379271e+00
1.099557428756427591e+00 1.740085278357851942e-02 3.915189700023425701e+00 3.922005001944871783e+00
1.117010721276370910e+00 1.765250709399034112e-02 3.966039727761058842e+00 4.006949649206793751e+00
1.134464013796314230e+00 1.790192806209645049e-02 4.016906930199913184e+00 4.096063365241897181e+00
1.151917306316257550e+00 1.814904297575575115e-02 4.067806831179064275e+00 4.189366029012461468e+00
1.169370598836200648e+00 1.839378103749617077e-02 4.118754999733468480e+00 4.287094178740529671e+00
1.186823891356144189e+00 1.863607086544112265e-02 4.169767083195485391e+00 4.389546772749103098e+00
1.204277183876087287e+00 1.887584163352184694e-02 4.220858822711778480e+00 4.497024829824843195e+00
1.221730476396030607e+00 1.911302314326870228e-02 4.272046085765079049e+00 4.609852323675499797e+00
1.239183768915973927e+00 1.934754474157962534e-02 4.323344884008751166e+00 4.728400252682527949e+00
1.256637061435917246e+00 1.957933900541975261e-02 4.374771405165364335e+00 4.852994860525448928e+00
1.274090353955860566e+00 1.980833562289642524e-02 4.426342033782260543e+00 4.984118186348161395e+00
1.291543646475803886e+00 2.003443826459583646e-02 4.478073382904736555e+00 5.122823329837084216e+00
1.308996938995747206e+00 2.025757513992391262e-02 4.529982317998639374e+00 5.269110221602451460e+00
1.326450231515690303e+00 2.047768027392160226e-02 4.582085989203307008e+00 5.423396934836361538e+00
1.343903524035633845e+00 2.069468663967205177e-02 4.634401858377730221e+00 5.586305279251691402e+00
1.361356816555576943e+00 2.090853088592993514e-02 4.686947733104780411e+00 5.758391276493775912e+00
1.378810109075520263e+00 2.111913652837715122e-02 4.739741796593755829e+00 5.940729470090855280e+00
1.396263401595463582e+00 2.132640076332552315e-02 4.792802644947343538e+00 6.134926616634388985e+00
1.413716694115406902e+00 2.153031312679398734e-02 4.846149319490433705e+00 6.339143594254223579e+00
1.431169986635350000e+00 2.173098492736755954e-02 4.899801349113422688e+00 6.550105355560721598e+00
1.448623279155293542e+00 2.192859101495297017e-02 4.953778784564682347e+00 6.765790412911408147e+00
1.466076571675236861e+00 2.212328135403156606e-02 5.008102247793785544e+00 6.986927538191498144e+00
1.483529864195180181e+00 2.231519620245598495e-02 5.062792968154822049e+00 7.213818960345428799e+00
1.500983156715123279e+00 2.250447155779976283e-02 5.117872840064503492e+00 7.446605501513747782e+00
1.518436449235066599e+00 2.269123505579868222e-02 5.173364462769514560e+00 7.685612872949437957e+00
1.535889741755009918e+00 2.287560775238770688e-02 5.229291205321231040e+00 7.931142419093039742e+00
1.553343034274953460e+00 2.305770492666472590e-02 5.285677255254874751e+00 8.183500453294323407e+00
1.570796326794896558e+00 2.323763621321943071e-02 5.342547686406437180e+00 8.443028341303559614e+00
1.588249619314839878e+00 2.341550606182464522e-02 5.399928524384213446e+00 8.710088477024262588e+00
1.605702911834782975e+00 2.359141413703481210e-02 5.457846813733956637e+00 8.985066507229742427e+00
1.623156204354726295e+00 2.376545569750402112e-02 5.516330703357963827e+00 9.268374608769926581e+00
1.640609496874669837e+00 2.393772184250652496e-02 5.575409520821728471e+00 9.560456622558623607e+00
1.658062789394613157e+00 2.410829987845762579e-02 5.635113867425577183e+00 9.861785241488277620e+00
1.675516081914556255e+00 2.427727352701305671e-02 5.695475716797744781e+00 1.017287163588130738e+01
1.692969374434499574e+00 2.444472323235706915e-02 5.756528514212202019e+00 1.049426060400388216e+01
1.710422666954442894e+00 2.461072633844658616e-02 5.818307297447418591e+00 1.082654276152663009e+01
1.727875959474386436e+00 2.477535735717859011e-02 5.880848821584168995e+00 1.117035086560480650e+01
1.745329251994329534e+00 2.493868811514046019e-02 5.944191691260336086e+00 1.152637030306191512e+01
1.762782544514272853e+00 2.510078799531879901e-02 6.008376512230981348e+00 1.189533793416420160e+01
1.780235837034215951e+00 2.526172405128283838e-02 6.073446057234352047e+00 1.227805569048682344e+01
1.797689129554159271e+00 2.542156123293314723e-02 6.139445443128940916e+00 1.267538706564325501e+01
1.815142422074102813e+00 2.558036247272750530e-02 6.206422327133958028e+00 1.308827402194420131e+01
1.832595714594046132e+00 2.573818889315046543e-02 6.274427124808498846e+00 1.351773505357194871e+01
1.850049007113989230e+00 2.589509988252156406e-02 6.343513251576804457e+00 1.396488424460818045e+01
1.867502299633932550e+00 2.605115326753174726e-02 6.413737387908807541e+00 1.443093235999944390e+01
1.884955592153875870e+00 2.620640540459673318e-02 6.485159773624752155e+00 1.491720473346767228e+01
1.902408884673818967e+00 2.636091129882331754e-02 6.557844535468738911e+00 1.542515159879330611e+01
1.919862177193762509e+00 2.651472472874739916e-02 6.631860052330752708e+00 1.595636186554309788e+01
1.937315469713705829e+00 2.666789830981768430e-02 6.707279363339655909e+00 1.651258607367801901e+01
1.954768762233649149e+00 2.682048364377890085e-02 6.784180625023816802e+00 1.709574688515519725e+01
1.972222054753592246e+00 2.697253135841150978e-02 6.862647624838301041e+00 1.770797315849875631e+01
1.989675347273535566e+00 2.712409123872141364e-02 6.942770359583024131e+00 1.835161609975368435e+01
2.007128639793478886e+00 2.727521229315003556e-02 7.024645688578721625e+00 1.902928678618534164e+01
2.024581932313422428e+00 2.742594282817142903e-02 7.108378073584560752e+00 1.974389096210548544e+01
2.042035224833365525e+00 2.757633056098145186e-02 7.194080423032329641e+00 2.049866644206067434e+01
2.059488517353308623e+00 2.772642265031574280e-02 7.281875053309335044e+00 2.129724260832799132e+01
2.076941809873252165e+00 2.787626581830711381e-02 7.371894785613849699e+00 2.214368543036376735e+01
2.094395102393195263e+00 2.802590639549792928e-02 7.464284216305544284e+00 2.304257916574621134e+01
2.111848394913138804e+00 2.817539039497608463e-02 7.559201172388843482e+00 2.399910251964121599e+01
2.129301687433081902e+00 2.832476360869938189e-02 7.656818408716373092e+00 2.501912603638593779e+01
2.146754979953025444e+00 2.847407163515558101e-02 7.757325575704399512e+00 2.610934038588088768e+01
2.164208272472968542e+00 2.862335999408526649e-02 7.860931526583706308e+00 2.727738758225710214e+01
2.181661564992911639e+00 2.877267416684922349e-02 7.967867030137150586e+00 2.853204948138361985e+01
2.199114857512855181e+00 2.892205966776809425e-02 8.078387977166972433e+00 2.988345870981546426e+01
2.216568150032798723e+00 2.907156213836902675e-02 8.192779194878696103e+00 3.134336124274099689e+01
2.234021442552741821e+00 2.922122737453418037e-02 8.311359013638400128e+00 3.292546321166081924e+01
2.251474735072684918e+00 2.937110144206075968e-02 8.434484765744604928e+00 3.464582958043992278e+01
2.268928027592628460e+00 2.952123071868214058e-02 8.562559466103959238e+00 3.652343042643514082e+01
2.286381320112572002e+00 2.967166196945221490e-02 8.696039901774202718e+00 3.858078653047864037e+01
2.303834612632515100e+00 2.982244244527337482e-02 8.835447002223444812e+00 4.084494497861409457e+01
2.321287905152458197e+00 2.997361991502073969e-02 8.980676797681482526e+00 4.313678012277873108e+01
2.338741197672401295e+00 3.012524279252375842e-02 9.131344408661469458e+00 4.536907192851221993e+01
2.356194490192344837e+00 3.027736017998645945e-02 9.287106866463473054e+00 4.754823283251951693e+01
2.373647782712288379e+00 3.043002196449883998e-02 9.447587536960250887e+00 4.965732541877424211e+01
2.391101075232231477e+00 3.058327891806298521e-02 9.612405108094067785e+00 5.168748385720890326e+01
2.408554367752174574e+00 3.073718274924468891e-02 9.781202888215062785e+00 5.363886401549370930e+01
2.426007660272118116e+00 3.089178624960349506e-02 9.953604493491088334e+00 5.549736548583813800e+01
2.443460952792061214e+00 3.104714333766697351e-02 1.012925288687961611e+01 5.726121086536817728e+01
2.460914245312004311e+00 3.120330920507745701e-02 1.030775913489150675e+01 5.891170199641986471e+01
2.478367537831947853e+00 3.136034040003868317e-02 1.048876557754623384e+01 6.045085963651305150e+01
2.495820830351891395e+00 3.151829494295618761e-02 1.067191011941139855e+01 6.186913188899441707e+01
2.513274122871834493e+00 3.167723246732726677e-02 1.085681890699681951e+01 6.315441331652418455e+01
2.530727415391777591e+00 3.183721430744654302e-02 1.104310483925925013e+01 6.429401857484076288e+01
2.548180707911721132e+00 3.199830368776118705e-02 1.123041270044855189e+01 6.529122463211028560e+01
2.565634000431664674e+00 3.216056580395267733e-02 1.141838002649053863e+01 6.613627418669067026e+01
2.583087292951607772e+00 3.232406804296104885e-02 1.160662639376617733e+01 6.681575947226396295e+01
2.600540585471550870e+00 3.248888008015572704e-02 1.179478077279951442e+01 6.732638252383883071e+01
2.617993877991494411e+00 3.265507411922282527e-02 1.198246017873306180e+01 6.765769159323090776e+01
2.635447170511437509e+00 3.282272501789278152e-02 1.216935255703171848e+01 6.783021325211862518e+01
2.652900463031380607e+00 3.299191055035331777e-02 1.235506184959752751e+01 6.780868796304305590e+01
2.670353755551324149e+00 3.316271156392938679e-02 1.253921012823359682e+01 6.759544080637931529e+01
2.687807048071267690e+00 3.333521227588199382e-02 1.272142756017867171e+01 6.719003749178399687e+01
2.705260340591210788e+00 3.350950046112674552e-02 1.290132204615240497e+01 6.658158424838271117e+01
2.722713633111153886e+00 3.368566779237340547e-02 1.307851755258389659e+01 6.577424215669292096e+01
2.740166925631096984e+00 3.386381007071548321e-02 1.325266383273845427e+01 6.477693364229138240e+01
2.757620218151040525e+00 3.404402761430872643e-02 1.342340649091132398e+01 6.358837381465425409e+01
2.775073510670984067e+00 3.422642555303145179e-02 1.359036844037009217e+01 6.220120755082832176e+01
2.792526803190927165e+00 3.441111421783953767e-02 1.375316088738756726e+01 6.061310577477348005e+01
2.809980095710870263e+00 3.459820963596745014e-02 1.391149889117433069e+01 5.886619207864317360e+01
2.827433388230813804e+00 3.478783391814316284e-02 1.406489318181034243e+01 5.688813393887784287e+01
2.844886680750756902e+00 3.498011550466639807e-02 1.421311482463084630e+01 5.478140853202994265e+01
2.862339973270700000e+00 3.517519045558120672e-02 1.435613555801103303e+01 5.262656805457185527e+01
2.879793265790643542e+00 3.537320302646061732e-02 1.449400773821525057e+01 5.045943391092841779e+01
2.897246558310587083e+00 3.557430185883198037e-02 1.462683324937077423e+01 4.830501947784942018e+01
2.914699850830530625e+00 3.577865396725672664e-02 1.475472567090681331e+01 4.617073955581678035e+01
2.932153143350473723e+00 3.598641363060817860e-02 1.487780054652999340e+01 4.406734739248022947e+01
2.949606435870416821e+00 3.619760660302080713e-02 1.499615061804289695e+01 4.201833701634868845e+01
2.967059728390360362e+00 3.641220725351094339e-02 1.510984185783858003e+01 4.002449782912761833e+01
2.984513020910303460e+00 3.663016516758420965e-02 1.521898988550173470e+01 3.810650180084114425e+01
3.001966313430246558e+00 3.685140612542310568e-02 1.532371960710790582e+01 3.626925376068982132e+01
3.019419605950190100e+00 3.707588743927166253e-02 1.542411515754043272e+01 3.449090048137929188e+01
3.036872898470133197e+00 3.730356125028654046e-02 1.552035588617037476e+01 3.280329767448336753e+01
3.054326190990076295e+00 3.753436434371582031e-02 1.561279561542093219e+01 3.126566845552280682e+01
3.071779483510019837e+00 3.776825905230258434e-02 1.570174718868813990e+01 2.985734743459675400e+01
3.089232776029963379e+00 3.800519786728817628e-02 1.578748929356226860e+01 2.856544553052893676e+01
3.106686068549906921e+00 3.824510674450799785e-02 1.587026988371566816e+01 2.738019372380158245e+01
3.124139361069850018e+00 3.848792856055575223e-02 1.595031026349282577e+01 2.628818348847102371e+01
3.141592653589793116e+00 3.873362112825804587e-02 1.602780888331676223e+01 2.527819784854004226e+01
3.159045946109736214e+00 3.898213441502334370e-02 1.610294439032472624e+01 2.434282099835410662e+01
3.176499238629679756e+00 3.923341493623280773e-02 1.617587819350786305e+01 2.347512474904928936e+01
3.193952531149622853e+00 3.948741476495920555e-02 1.624675662789016428e+01 2.266821752103571086e+01
3.211405823669565951e+00 3.974408644632460019e-02 1.631571278963576077e+01 2.191649901017279589e+01
3.228859116189509493e+00 4.000337417135241269e-02 1.638286810705974972e+01 2.121574995358809801e+01
3.246312408709452590e+00 4.026521587671740704e-02 1.644833368631595505e+01 2.056203558315893787e+01
3.263765701229396576e+00 4.052955376693022360e-02 1.651221145925444134e+01 1.995104246041601570e+01
3.281218993749339674e+00 4.079633669980627791e-02 1.657459516373074138e+01 1.937876301459109385e+01
3.298672286269282772e+00 4.106551718943200063e-02 1.663557124619349636e+01 1.884185524614580487e+01
3.316125578789226314e+00 4.133704627867969272e-02 1.669521960777219149e+01 1.833767605819389601e+01
3.333578871309169411e+00 4.161087303654197739e-02 1.675361422635587516e+01 1.786386619561613287e+01
3.351032163829112509e+00 4.188694472013580056e-02 1.681082380716409119e+01 1.741830546561233461e+01
3.368485456349056051e+00 4.216520805125275467e-02 1.686691222344653696e+01 1.699897701919106296e+01
3.385938748868999149e+00 4.244560982106054814e-02 1.692193902176689591e+01 1.660403438927034259e+01
3.403392041388942246e+00 4.272809689372661368e-02 1.697595978881870238e+01 1.623179355744711572e+01
3.420845333908885788e+00 4.301261620641810141e-02 1.702902652740161216e+01 1.588073038878222576e+01
3.438298626428828886e+00 4.329911476930188574e-02 1.708118795800305634e+01 1.554945322052087775e+01
