# angles(rad), pulling distance(m),                                     elastic band force(n), cable force(n)
0.000000000000000000e+00 2.151882558555294174e-04 6.962310931106006906e-02 1.126310850670724922e-01
1.745329251994329547e-02 4.334139295885724107e-04 1.395851998471230593e-01 2.237516837992509777e-01
3.490658503988659095e-02 6.546061570954020761e-04 2.098483807730369965e-01 3.332986631460799209e-01
5.235987755982988295e-02 8.786839480107190830e-04 2.803744246533371176e-01 4.412239806373310369e-01
6.981317007977318190e-02 1.105573202940009735e-03 3.511247674522459117e-01 5.474520525481806343e-01
8.726646259971647390e-02 1.335198522289965948e-03 4.220605085336729401e-01 6.519136269204658385e-01
1.047197551196597659e-01 1.567478615575480317e-03 4.931424106612151692e-01 7.545524042491585925e-01
1.221730476396030718e-01 1.802342572319074474e-03 5.643308999981566654e-01 8.552581846537661292e-01
1.396263401595463638e-01 2.039708157468169466e-03 6.355861442886328039e-01 9.539893062105300192e-01
1.570796326794896558e-01 2.279504455470330194e-03 7.068683655822862733e-01 1.050623960434653448e+00
1.745329251994329478e-01 2.521650159818935710e-03 7.781379184154310069e-01 1.145127509843045788e+00
1.919862177193762398e-01 2.766073916584060356e-03 8.493552898110524607e-01 1.237376675693500072e+00
2.094395102393195318e-01 3.012693763573188934e-03 9.204810992788072799e-01 1.327345793237396654e+00
2.268928027592628516e-01 3.261441355705978901e-03 9.914760988150237431e-01 1.414884955709755143e+00
2.443460952792061436e-01 3.512231147942313121e-03 1.062301181967115316e+00 1.500012597691483096e+00
2.617993877991494078e-01 3.764994732256405057e-03 1.132917527041118255e+00 1.582555795112241759e+00
2.792526803190927276e-01 4.019655484939712101e-03 1.203286711351641003e+00 1.662492226959016106e+00
2.967059728390360474e-01 4.276107721101206002e-03 1.273370686623800596e+00 1.739951287799208046e+00
3.141592653589793116e-01 4.534314675194265308e-03 1.343131100254685073e+00 1.814385314357240597e+00
3.316125578789225758e-01 4.794199161597631834e-03 1.412528593702135238e+00 1.885952200964273073e+00
3.490658503988658956e-01 5.055671704889907157e-03 1.481522878370238328e+00 1.954633743289929226e+00
3.665191429188092154e-01 5.318652447381129640e-03 1.550073088972123037e+00 2.020258892167741127e+00
3.839724354387524796e-01 5.583064770701732030e-03 1.618137992838156070e+00 2.082701848789416665e+00
4.014257279586957439e-01 5.848832295030110574e-03 1.685676530967415987e+00 2.141874349547542078e+00
4.188790204786390636e-01 6.115878879092618084e-03 1.752649632513590960e+00 2.197751044546660815e+00
4.363323129985823834e-01 6.384128620163570869e-03 1.819023757635029215e+00 2.250442255901395239e+00
4.537856055185257032e-01 6.653505854065242670e-03 1.884761475770707184e+00 2.299747399819714211e+00
4.712388980384689674e-01 6.923935155167868123e-03 1.949815223530833919e+00 2.345211617477316324e+00
4.886921905584122872e-01 7.195341295718480149e-03 2.014144699674548455e+00 2.386992297684232156e+00
5.061454830783556069e-01 7.467648695973917727e-03 2.077725416478398479e+00 2.425627639523463941e+00
5.235987755982988157e-01 7.740781029056086927e-03 2.140555810230781120e+00 2.462029355662008090e+00
5.410520681182421354e-01 8.014661216126064275e-03 2.202666974098225872e+00 2.497628814213349369e+00
5.585053606381854552e-01 8.289211810179521883e-03 2.264097442094924251e+00 2.532949636068513311e+00
5.759586531581287749e-01 8.564355701602355264e-03 2.324879038737162062e+00 2.567926535526009246e+00
5.934119456780720947e-01 8.840016207679268767e-03 2.385043392903899662e+00 2.602741274690794970e+00
6.108652381980153034e-01 9.116117231714963159e-03 2.444621137411499667e+00 2.637531208934460025e+00
6.283185307179586232e-01 9.392583319113727985e-03 2.503641312530997087e+00 2.672395556581506515e+00
6.457718232379019430e-01 9.669338295250934356e-03 2.562131896235866790e+00 2.707459721797468966e+00
6.632251157578451517e-01 9.946303947288495997e-03 2.620119839014543039e+00 2.742855624520640134e+00
6.806784082777884715e-01 1.022340607512443877e-02 2.677631068096268496e+00 2.778647983619979112e+00
6.981317007977317912e-01 1.050057902668889188e-02 2.734690595580584027e+00 2.814851743629515735e+00
7.155849933176750000e-01 1.077774271992261793e-02 2.791322579006685789e+00 2.851710701839761608e+00
7.330382858376184307e-01 1.105479969139189396e-02 2.847550377807611000e+00 2.889504798774221062e+00
7.504915783575616395e-01 1.133168351306660174e-02 2.903396612176944558e+00 2.928010865532894247e+00
7.679448708775049592e-01 1.160833154994771535e-02 2.958883211624811160e+00 2.967278738489599554e+00
7.853981633974482790e-01 1.188464737028503172e-02 3.014031472099178544e+00 3.007764674826688189e+00
8.028514559173914877e-01 1.216056238844870525e-02 3.068862093042017847e+00 3.049265227919171206e+00
8.203047484373349185e-01 1.243601212540498130e-02 3.123395230845261938e+00 3.091826197037144119e+00
8.377580409572781273e-01 1.271090420076296731e-02 3.177650531825390701e+00 3.135855877062556640e+00
8.552113334772214470e-01 1.298516070561799539e-02 3.231647178613314519e+00 3.181293937567950536e+00
8.726646259971647668e-01 1.325871175667223643e-02 3.285403921812720451e+00 3.228147255339723021e+00
8.901179185171079755e-01 1.353148988253628088e-02 3.338939119651736398e+00 3.276486444372656237e+00
9.075712110370514063e-01 1.380341986354343374e-02 3.392270768964259720e+00 3.326506962444278237e+00
9.250245035569946150e-01 1.407440525964797663e-02 3.445416539339423601e+00 3.378582736906686090e+00
9.424777960769379348e-01 1.434437207233621274e-02 3.498393803267453528e+00 3.432557690969118003e+00
9.599310885968812546e-01 1.461325007393060767e-02 3.551219666270134745e+00 3.488501150529304429e+00
9.773843811168245743e-01 1.488096538854748185e-02 3.603910995923086169e+00 3.546581983885328526e+00
9.948376736367677831e-01 1.514744424184989204e-02 3.656484449267111803e+00 3.606928133590868502e+00
1.012290966156711214e+00 1.541261289787365478e-02 3.708956500508496568e+00 3.669674962060899492e+00
1.029744258676654312e+00 1.567639574958248211e-02 3.761343466780149747e+00 3.734992097739108452e+00
1.047197551196597631e+00 1.593870583945463174e-02 3.813661534446026291e+00 3.803197244740880389e+00
1.064650843716540951e+00 1.619946383615848348e-02 3.865926784069380506e+00 3.874351524192611862e+00
1.082104136236484271e+00 1.645859480749288159e-02 3.918155215365079602e+00 3.948565071511742186e+00
1.099557428756427591e+00 1.671602381581979366e-02 3.970362772057980383e+00 4.026021404129568992e+00
1.117010721276370910e+00 1.697167565239626752e-02 4.022565365636175727e+00 4.106920328366517658e+00
1.134464013796314230e+00 1.722547504220773087e-02 4.074778900634816736e+00 4.191472069693855218e+00
1.151917306316257550e+00 1.747734667108586867e-02 4.127019297452304336e+00 4.279900970439363128e+00
1.169370598836200648e+00 1.772721520756213517e-02 4.179302518466021077e+00 4.372447214395392301e+00
1.186823891356144189e+00 1.797500554537148285e-02 4.231644590286135710e+00 4.469364040182578712e+00
1.204277183876087287e+00 1.822064236209657018e-02 4.284061630996639281e+00 4.570931913060404028e+00
1.221730476396030607e+00 1.846405145975033371e-02 4.336569872339011589e+00 4.677427007653086832e+00
1.239183768915973927e+00 1.870515760125688459e-02 4.389185688272926988e+00 4.789189210007502417e+00
1.256637061435917246e+00 1.894387033103743512e-02 4.441925617708754714e+00 4.906877899903349771e+00
1.274090353955860566e+00 1.918011213640100424e-02 4.494806394490175272e+00 5.030626422299399714e+00
1.291543646475803886e+00 1.941380850490157309e-02 4.547844971443599782e+00 5.160782493921631797e+00
1.308996938995747206e+00 1.964488485447682051e-02 4.601058551782930550e+00 5.297790088455974988e+00
1.326450231515690303e+00 1.987326811875902641e-02 4.654464615438940633e+00 5.442093892432067648e+00
1.343903524035633845e+00 2.009888449970317209e-02 4.708080951752531718e+00 5.594231470348454138e+00
1.361356816555576943e+00 2.032166555128387883e-02 4.761925689308476706e+00 5.754633017091323133e+00
1.378810109075520263e+00 2.054153815736502534e-02 4.816017329615877252e+00 5.924027593770520461e+00
1.396263401595463582e+00 2.075839738659700576e-02 4.870374781974548206e+00 6.103986584238420221e+00
1.413716694115406902e+00 2.097217267420545608e-02 4.925017397721593859e+00 6.294362557568511818e+00
1.431169986635350000e+00 2.118278495320338392e-02 4.979965011844806888e+00 6.496230825664358832e+00
1.448623279155293542e+00 2.139020418336041660e-02 5.035237977594892556e+00 6.708937644509362030e+00
1.466076571675236861e+00 2.159451152377467667e-02 5.090857216161800203e+00 6.929501442328115601e+00
1.483529864195180181e+00 2.179585515533531345e-02 5.146844252736718417e+00 7.155839874095874187e+00
1.500983156715123279e+00 2.199438207003104329e-02 5.203221273662085089e+00 7.387968404036013403e+00
1.518436449235066599e+00 2.219022713449132420e-02 5.260011168356201416e+00 7.626321377156929593e+00
1.535889741755009918e+00 2.238352032744419379e-02 5.317237589834713063e+00 7.871112137183818191e+00
1.553343034274953460e+00 2.257438479453986041e-02 5.374925009834845113e+00 8.122663197339385022e+00
1.570796326794896558e+00 2.276293742206522697e-02 5.433098778447635446e+00 8.381316010707058339e+00
1.588249619314839878e+00 2.294928964587833117e-02 5.491785196705791350e+00 8.647420364595589604e+00
1.605702911834782975e+00 2.313354773000417253e-02 5.551011579734328016e+00 8.921354511443208679e+00
1.623156204354726295e+00 2.331581311119238983e-02 5.610806339647153251e+00 9.203525535386836154e+00
1.640609496874669837e+00 2.349618277673285599e-02 5.671199067165454188e+00 9.494367551746778489e+00
1.658062789394613157e+00 2.367474960172626444e-02 5.732220616166516791e+00 9.794343972549841126e+00
1.675516081914556255e+00 2.385160259359799667e-02 5.793903206986536603e+00 1.010395574835822607e+01
1.692969374434499574e+00 2.402682721653687584e-02 5.856280528551760511e+00 1.042373747418631780e+01
1.710422666954442894e+00 2.420050559532422457e-02 5.919387848946525921e+00 1.075426625157878924e+01
1.727875959474386436e+00 2.437271678612300263e-02 5.983262143940066835e+00 1.109616191122771234e+01
1.745329251994329534e+00 2.454353696260454590e-02 6.047942231606614705e+00 1.145009453215264550e+01
1.762782544514272853e+00 2.471303963809380611e-02 6.113468917409963233e+00 1.181678565731678709e+01
1.780235837034215951e+00 2.488129583808770806e-02 6.179885155598170421e+00 1.219701635021013786e+01
1.797689129554159271e+00 2.504837428539308242e-02 6.247236228805914671e+00 1.259163199617688456e+01
1.815142422074102813e+00 2.521434155510162214e-02 6.315569941974666257e+00 1.300154981370658547e+01
1.832595714594046132e+00 2.537926223692205108e-02 6.384936835783236120e+00 1.342776511027430431e+01
1.850049007113989230e+00 2.554319906770500387e-02 6.455390422808594764e+00 1.387136157152397509e+01
1.867502299633932550e+00 2.570621308282917961e-02 6.526987448975729578e+00 1.433351883336242238e+01
1.884955592153875870e+00 2.586836372262393130e-02 6.599788183340450587e+00 1.481552669193782279e+01
1.902408884673818967e+00 2.602970898146477960e-02 6.673856739844912234e+00 1.531879333143251287e+01
1.919862177193762509e+00 2.619030548742588491e-02 6.749261435388722141e+00 1.584486538593554883e+01
1.937315469713705829e+00 2.635020865234591683e-02 6.826075189392029507e+00 1.639543722190442310e+01
1.954768762233649149e+00 2.650947273012759994e-02 6.904375970938110285e+00 1.697237827080854800e+01
1.972222054753592246e+00 2.666815096244590580e-02 6.984247300638876332e+00 1.757774556443250091e+01
1.989675347273535566e+00 2.682629563020542604e-02 7.065778815500076249e+00 1.821381835579495956e+01
2.007128639793478886e+00 2.698395818047076913e-02 7.149066906302064872e+00 1.888311880784223717e+01
2.024581932313422428e+00 2.714118929000684452e-02 7.234215438342084248e+00 1.958845252868746556e+01
2.042035224833365525e+00 2.729803895968422114e-02 7.321336568680624879e+00 2.033294423776346704e+01
2.059488517353308623e+00 2.745455660269293177e-02 7.410551682102093807e+00 2.112008576558987372e+01
2.076941809873252165e+00 2.761079110312163534e-02 7.501992456899937878e+00 2.195379384528295930e+01
2.094395102393195263e+00 2.776679092712055347e-02 7.595802087615742160e+00 2.283846771630035732e+01
2.111848394913138804e+00 2.792260415917032987e-02 7.692136698365629854e+00 2.377907783965486388e+01
2.129301687433081902e+00 2.807827861671140235e-02 7.791166974005067303e+00 2.478124623575601149e+01
2.146754979953025444e+00 2.823386189200725871e-02 7.893080056141090317e+00 2.585136848861299086e+01
2.164208272472968542e+00 2.838940144347638569e-02 7.998081759746023423e+00 2.699674142083263462e+01
2.181661564992911639e+00 2.854494466641066888e-02 8.106399171912663348e+00 2.822572927726874426e+01
2.199114857512855181e+00 2.870053894990097151e-02 8.218283717881085693e+00 2.954796673079928482e+01
2.216568150032798723e+00 2.885623177855570903e-02 8.334014798614031605e+00 3.097459747573983790e+01
2.234021442552741821e+00 2.901207076686489542e-02 8.453904134858287733e+00 3.251859391533924537e+01
2.251474735072684918e+00 2.916810377200604668e-02 8.578300982181035650e+00 3.419512418554070621e+01
2.268928027592628460e+00 2.932437893460356285e-02 8.707598456449970215e+00 3.602205458159492935e+01
2.286381320112572002e+00 2.948094477441908640e-02 8.842240663161970105e+00 3.802038799042897210e+01
2.303834612632515100e+00 2.963785026195062816e-02 8.982733767695686211e+00 4.021567932637548637e+01
2.321287905152458197e+00 2.979514488475725961e-02 9.129006680582287814e+00 4.244666394513659924e+01
2.338741197672401295e+00 2.995287875429093055e-02 9.280686918736307689e+00 4.462252800329304137e+01
2.356194490192344837e+00 3.011110265073370720e-02 9.437427627297424237e+00 4.674480677549911434e+01
2.373647782712288379e+00 3.026986815149911719e-02 9.598869500532559940e+00 4.880340708890403789e+01
2.391101075232231477e+00 3.042922767685916560e-02 9.764661357014178478e+00 5.079399335044622177e+01
2.408554367752174574e+00 3.058923461835093977e-02 9.934425555035199196e+00 5.270114444493674455e+01
2.426007660272118116e+00 3.074994340704534021e-02 1.010781065207261697e+01 5.452544770522895590e+01
2.443460952792061214e+00 3.091140962894175365e-02 1.028446387802889284e+01 5.625894072291323766e+01
2.460914245312004311e+00 3.107369012597005140e-02 1.046401070363371666e+01 5.788680523343235507e+01
2.478367537831947853e+00 3.123684309768288286e-02 1.064609931831514622e+01 5.940846361183666602e+01
2.495820830351891395e+00 3.140092823528647936e-02 1.083037592176337149e+01 6.081552900151898200e+01
2.513274122871834493e+00 3.156600681655028634e-02 1.101647627488816283e+01 6.209679381940027554e+01
2.530727415391777591e+00 3.173214186875109033e-02 1.120402399000220228e+01 6.324039001920091607e+01
2.548180707911721132e+00 3.189939826664936473e-02 1.139267317010112990e+01 6.424921496820255129e+01
2.565634000431664674e+00 3.206784292031849420e-02 1.158206308676134988e+01 6.511117791437409608e+01
2.583087292951607772e+00 3.223754488561290238e-02 1.177182766498459721e+01 6.581762055280626100e+01
2.600540585471550870e+00 3.240857557358979568e-02 1.196163082004913392e+01 6.637274562297371006e+01
2.617993877991494411e+00 3.258100888423513808e-02 1.215108893370446985e+01 6.675399259058583823e+01
2.635447170511437509e+00 3.275492143793231475e-02 1.233980082377826371e+01 6.694936872251673776e+01
2.652900463031380607e+00 3.293039273999338878e-02 1.252749014965383623e+01 6.699888111284921877e+01
2.670353755551324149e+00 3.310750541954970982e-02 1.271378473331414938e+01 6.686447406173587638e+01
2.687807048071267690e+00 3.328634546888707690e-02 1.289830073123157206e+01 6.653830726619365521e+01
2.705260340591210788e+00 3.346700250877438637e-02 1.308064631042642212e+01 6.601453309557065552e+01
2.722713633111153886e+00 3.364956998916107667e-02 1.326046365828585394e+01 6.530356341033242984e+01
2.740166925631096984e+00 3.383414547765927621e-02 1.343743861199433809e+01 6.442052776529752123e+01
2.757620218151040525e+00 3.402083145169684103e-02 1.361123063134214384e+01 6.335567707817548921e+01
2.775073510670984067e+00 3.420973487531568658e-02 1.378142905239323746e+01 6.208403795999321062e+01
2.792526803190927165e+00 3.440096658343746311e-02 1.394771094487514951e+01 6.063983307171149306e+01
2.809980095710870263e+00 3.459464745721539669e-02 1.410962130829216932e+01 5.897572303193481247e+01
2.827433388230813804e+00 3.479090057985279733e-02 1.426690534468447957e+01 5.716995554727991191e+01
2.844886680750756902e+00 3.498981753801334860e-02 1.441913067768864387e+01 5.517269591640557991e+01
2.862339973270700000e+00 3.519142186834894881e-02 1.456600494816849256e+01 5.305866563001999481e+01
2.879793265790643542e+00 3.539568304230605866e-02 1.470727718479260027e+01 5.085963970281063240e+01
2.897246558310587083e+00 3.560259071086591814e-02 1.484300701220409024e+01 4.868448796645555632e+01
2.914699850830530625e+00 3.581213219952336657e-02 1.497330126636933478e+01 4.655247830377071949e+01
2.932153143350473723e+00 3.602428621325545754e-02 1.509826933186171694e+01 4.446773071822117629e+01
2.949606435870416821e+00 3.623904987590625959e-02 1.521802127503906732e+01 4.242774584179467467e+01
2.967059728390360362e+00 3.645641234587113089e-02 1.533266935247574381e+01 4.043616783333607145e+01
2.984513020910303460e+00 3.667634259844932548e-02 1.544235162277266227e+01 3.850657571783634836e+01
3.001966313430246558e+00 3.689882508973924002e-02 1.554749918391779495e+01 3.673955670886042668e+01
3.019419605950190100e+00 3.712385551544992307e-02 1.564850182107454302e+01 3.511836113914437618e+01
3.036872898470133197e+00 3.735142288315372594e-02 1.574570240392591813e+01 3.362721699751770643e+01
3.054326190990076295e+00 3.758151299255005351e-02 1.583940428478544860e+01 3.225218974150693896e+01
3.071779483510019837e+00 3.781411168370303610e-02 1.592987718514022788e+01 3.098087491573941676e+01
3.089232776029963379e+00 3.804920393934914380e-02 1.601736199793997883e+01 2.980268133640629813e+01
3.106686068549906921e+00 3.828677369020243998e-02 1.610207476887635991e+01 2.870843966028808580e+01
3.124139361069850018e+00 3.852680465237554031e-02 1.618421002198373770e+01 2.769005661736121482e+01
3.141592653589793116e+00 3.876928071307837037e-02 1.626394354625536920e+01 2.674040343898311534e+01
3.159045946109736214e+00 3.901418660957377965e-02 1.634143474387049011e+01 2.585314129167170805e+01
3.176499238629679756e+00 3.926150817924173309e-02 1.641682862196730497e+01 2.502265325104180960e+01
3.193952531149622853e+00 3.951123277638618481e-02 1.649025749334811763e+01 2.424392731756326569e+01
3.211405823669565951e+00 3.976334938555158710e-02 1.656184243671475897e+01 2.351250393228999158e+01
3.228859116189509493e+00 4.001784657997075473e-02 1.663169455321449774e+01 2.282459474986852044e+01
3.246312408709452590e+00 4.027471022399103234e-02 1.669991604474273927e+01 2.217700339248498054e+01
3.263765701229396576e+00 4.053392376593849961e-02 1.676660114390906386e+01 2.156682192534571740e+01
3.281218993749339674e+00 4.079547102331042285e-02 1.683183696504147164e+01 2.099121047214525859e+01
3.298672286269282772e+00 4.105933732812040021e-02 1.689570421350881801e+01 2.044751677960627134e+01
3.316125578789226314e+00 4.132550939745820856e-02 1.695827778416841625e+01 1.993334604627449735e+01
3.333578871309169411e+00 4.159397419692038855e-02 1.701962737480562282e+01 1.944663088669173590e+01
3.351032163829112509e+00 4.186471836408144770e-02 1.707981792787012409e+01 1.898551865584510168e+01
3.368485456349056051e+00 4.213772820398231644e-02 1.713891009002493604e+01 1.854832878119408335e+01
3.385938748868999149e+00 4.241298971461986145e-02 1.719696060371193980e+01 1.813352681579848280e+01
3.403392041388942246e+00 4.269048876704898549e-02 1.725402262661648933e+01 1.773969002231188341e+01
3.420845333908885788e+00 4.297021118297458114e-02 1.731014607983492226e+01 1.736552236082209433e+01
3.438298626428828886e+00 4.325214273505520457e-02 1.736537788137577465e+01 1.700982202502493479e+01
