# angles(rad), pulling distance(m), elastic band force(n), cable force(n)
0.000000000000000000e+00 7.175280150305005447e-04 4.843193162034118426e-01 3.889835025135150448e-01
1.745329251994329547e-02 1.426466509172504655e-03 9.760866551486727660e-01 8.056491663972099593e-01
3.490658503988659095e-02 2.126807180292903526e-03 1.475302016835782659e+00 1.251313104631543105e+00
5.235987755982988295e-02 2.818523913960566379e-03 1.981965401264741411e+00 1.727403401592192411e+00
6.981317007977318190e-02 3.501544745544560213e-03 2.496076808435549133e+00 2.235567048777934662e+00
8.726646259971647390e-02 4.175864051850609361e-03 3.017636238348206490e+00 2.777228147540245828e+00
1.047197551196597659e-01 4.841483152291668583e-03 3.546671459803831805e+00 3.354178996340166030e+00
1.221730476396030718e-01 5.498401868751221118e-03 4.084589256478150965e+00 3.979780610511366667e+00
1.396263401595463638e-01 6.146613377505309554e-03 4.631389628371164413e+00 4.648682082917947156e+00
1.570796326794896558e-01 6.786072695685386666e-03 5.187072575482871706e+00 5.363433958524998602e+00
1.745329251994329478e-01 7.416790925436293064e-03 5.752773676146462734e+00 6.139533768824003701e+00
1.919862177193762398e-01 8.038783460195472741e-03 6.328931882313885815e+00 6.975791073800963638e+00
2.094395102393195318e-01 8.652068483440831376e-03 6.915547193985140950e+00 7.870893731456493292e+00
2.268928027592628238e-01 9.256667319892948609e-03 7.513927526953920299e+00 8.848781468894211244e+00
2.443460952792061436e-01 9.852604752885383427e-03 8.124484268421841904e+00 9.904387672239408857e+00
2.617993877991494078e-01 1.043990930187646028e-02 8.747379679432432553e+00 1.103916457512920957e+01
2.792526803190927276e-01 1.101861268438680472e-02 9.384040158932787534e+00 1.228423717060793585e+01
2.967059728390359918e-01 1.158873967275209430e-02 1.003446570692290685e+01 1.362155563656654245e+01
3.141592653589793116e-01 1.215031816738610174e-02 1.069793056697186273e+01 1.503881774222973533e+01
3.316125578789226314e-01 1.270339542766882671e-02 1.137403693994113141e+01 1.654437346221254757e+01
3.490658503988658956e-01 1.324802377293425246e-02 1.206278482583071288e+01 1.815156533327399657e+01
3.665191429188092154e-01 1.378425993168921893e-02 1.276220856634923173e+01 1.980690304652667777e+01
3.839724354387524796e-01 1.431216512883420888e-02 1.347096109257310204e+01 2.152007239263471661e+01
4.014257279586957439e-01 1.483180515259669915e-02 1.418904240450232201e+01 2.333085104165137480e+01
4.188790204786390636e-01 1.534325040021205719e-02 1.491645250213689522e+01 2.524365240158009627e+01
4.363323129985823834e-01 1.584657590017812465e-02 1.565319138547681987e+01 2.726302344174554193e+01
4.537856055185256476e-01 1.634186130749260349e-02 1.639925905452209776e+01 2.939364048058713408e+01
4.712388980384689674e-01 1.682922180374826771e-02 1.715465550927272531e+01 3.163829589567258083e+01
4.886921905584122872e-01 1.730892427655887633e-02 1.791938074972870609e+01 3.399092073703786099e+01
5.061454830783556069e-01 1.778138511418878367e-02 1.869085652424923083e+01 3.631550979633811238e+01
5.235987755982988157e-01 1.824696157143582478e-02 1.946659004131996440e+01 3.859383109933736478e+01
5.410520681182421354e-01 1.870597623154327330e-02 2.024658130094090325e+01 4.093750264522979876e+01
5.585053606381854552e-01 1.915872686445042536e-02 2.103083030311205093e+01 4.334687482633513156e+01
5.759586531581286639e-01 1.960548778912323681e-02 2.181933704783340744e+01 4.582244369632800840e+01
5.934119456780719837e-01 2.004661244063050268e-02 2.261210153510496923e+01 4.835375990624244480e+01
6.108652381980153034e-01 2.048236860335541851e-02 2.340912376492673630e+01 5.094698856144653831e+01
6.283185307179586232e-01 2.091297550304066499e-02 2.421040373729871220e+01 5.360580217437325956e+01
6.457718232379019430e-01 2.133867170792622808e-02 2.501594145222089693e+01 5.632606551183594945e+01
6.632251157578452627e-01 2.175976353829142326e-02 2.582266314257030970e+01 5.886462911518734131e+01
6.806784082777885825e-01 2.217642210665959207e-02 2.663053151809035057e+01 6.143934667731483046e+01
6.981317007977317912e-01 2.258884754181604906e-02 2.743954657878101600e+01 6.404637586848451747e+01
7.155849933176751110e-01 2.299731678378925948e-02 2.824963574404746680e+01 6.666421667912706539e+01
7.330382858376184307e-01 2.340195994126206477e-02 2.905915735584935788e+01 6.917445199098419550e+01
7.504915783575617505e-01 2.380300262539285922e-02 2.986811141418669280e+01 7.168816870449391843e+01
7.679448708775049592e-01 2.420063723339255582e-02 3.067649791905947154e+01 7.420738384597068205e+01
7.853981633974482790e-01 2.459497197585843245e-02 3.148312850941201901e+01 7.662914716182937980e+01
8.028514559173914877e-01 2.498628549805069141e-02 3.228784664829523621e+01 7.900680161495651532e+01
8.203047484373349185e-01 2.537465467931733498e-02 3.309051792058279773e+01 8.137724611029773314e+01
8.377580409572781273e-01 2.576029630596841924e-02 3.389010597122894097e+01 8.361068468582568869e+01
8.552113334772213360e-01 2.614333491919008934e-02 3.468661080023366594e+01 8.582507428852817100e+01
8.726646259971647668e-01 2.652391880695082263e-02 3.547945421199856497e+01 8.794687608527318901e+01
8.901179185171079755e-01 2.690221730315156892e-02 3.626822684473231106e+01 8.998083236913277005e+01
9.075712110370512953e-01 2.727832583182570811e-02 3.705273752722215619e+01 9.196285464943734667e+01
9.250245035569946150e-01 2.765244548316580370e-02 3.783226048051216139e+01 9.379660987073970091e+01
9.424777960769379348e-01 2.802463250988830590e-02 3.860679570460233379e+01 9.559829874033133024e+01
9.599310885968812546e-01 2.839510860649580720e-02 3.937551416738721599e+01 9.721646417081520042e+01
9.773843811168245743e-01 2.876390269875352124e-02 4.013836136693794288e+01 9.879152814015797901e+01
9.948376736367677831e-01 2.913124770941176098e-02 4.089476099675252385e+01 1.001962113820150932e+02
1.012290966156711214e+00 2.949715534039125397e-02 4.164451573746196544e+01 1.015341257835368083e+02
1.029744258676654312e+00 2.986186202430687539e-02 4.238718794153909641e+01 1.027056928438833410e+02
1.047197551196597631e+00 3.022537071714086199e-02 4.312248430578421932e+01 1.037905597950247056e+02
1.064650843716540951e+00 3.058791517804255664e-02 4.385007230073465223e+01 1.047131026997813308e+02
1.082104136236484271e+00 3.094949658954015623e-02 4.456959225825976034e+01 1.055314422958550153e+02
1.099557428756427591e+00 3.131034126807261120e-02 4.528079925232167824e+01 1.061930908891637841e+02
1.117010721276370910e+00 3.167045420724650534e-02 4.598328140822713550e+01 1.067340513178304633e+02
1.134464013796314230e+00 3.203005081271432380e-02 4.667687641123701781e+01 1.071269207334664486e+02
1.151917306316257328e+00 3.238914419454974603e-02 4.736112299702158168e+01 1.073825451890282636e+02
1.169370598836200870e+00 3.274793658214449066e-02 4.803602440522134742e+01 1.075153900526655946e+02
1.186823891356143967e+00 3.310645232220363332e-02 4.870160300163255584e+01 1.075823037893996599e+02
1.204277183876087509e+00 3.346487932648816582e-02 4.935785878625519985e+01 1.075313744943288725e+02
1.221730476396030607e+00 3.382325518668170133e-02 5.000568352559246676e+01 1.075584691669152448e+02
1.239183768915973927e+00 3.418175342589239302e-02 5.064515455048737635e+01 1.074925111501569432e+02
1.256637061435917246e+00 3.454042582565717417e-02 5.127681304410411656e+01 1.074513486239735727e+02
1.274090353955860566e+00 3.489943249395877772e-02 5.190105721334970923e+01 1.073827810738936677e+02
1.291543646475803886e+00 3.525883930379329623e-02 5.251796448359453962e+01 1.072625051510298988e+02
1.308996938995747206e+00 3.561879496973196363e-02 5.312834201994810002e+01 1.071969070514150246e+02
1.326450231515690525e+00 3.597937830530076320e-02 5.373218982241040464e+01 1.070687771376577615e+02
1.343903524035633623e+00 3.634072973423657649e-02 5.432988342117289449e+01 1.069286454195527654e+02
1.361356816555577165e+00 3.670293876894128310e-02 5.492187997878140493e+01 1.068099621336919256e+02
1.378810109075520263e+00 3.706614178524739178e-02 5.550817949523596440e+01 1.066187379094789378e+02
1.396263401595463582e+00 3.743043559731203118e-02 5.608930345714480836e+01 1.064641766288970501e+02
1.413716694115406902e+00 3.779595799879767459e-02 5.666551451344340506e+01 1.062901179954707089e+02
1.431169986635350222e+00 3.816280846571559054e-02 5.723681266413174740e+01 1.060609828214200832e+02
1.448623279155293542e+00 3.853113299838183126e-02 5.780373836921405228e+01 1.058663385270220516e+02
1.466076571675236861e+00 3.890102774733176366e-02 5.836649056365528310e+01 1.056596276793212326e+02
1.483529864195179959e+00 3.927265514360035736e-02 5.892506924745544694e+01 1.053860680302091168e+02
1.500983156715123501e+00 3.964610056155359885e-02 5.947993095772808658e+01 1.051561169223104031e+02
1.518436449235066599e+00 4.002155263995018503e-02 6.003131813217497381e+01 1.049026575391874587e+02
1.535889741755009918e+00 4.039907694208596384e-02 6.057923077079610863e+01 1.046156416734534531e+02
1.553343034274953238e+00 4.077889976141847728e-02 6.112396067640836606e+01 1.043081197835749521e+02
1.570796326794896558e+00 4.116106420247644948e-02 6.166587943803175165e+01 1.040483757610171551e+02
1.588249619314839878e+00 4.154583125917876013e-02 6.220498705566627251e+01 1.037072827089653373e+02
1.605702911834782975e+00 4.193326659865620476e-02 6.274134900773643153e+01 1.033520384925049882e+02
1.623156204354726517e+00 4.232358205242565258e-02 6.327553297151176537e+01 1.030427345488669602e+02
1.640609496874669837e+00 4.271691733731853430e-02 6.380753894699227402e+01 1.026909238669272781e+02
1.658062789394613157e+00 4.311341924762229078e-02 6.433736693417795038e+01 1.022961663090661517e+02
1.675516081914556255e+00 4.351332009187384997e-02 6.486541895212326381e+01 1.019164005370435859e+02
1.692969374434499574e+00 4.391672302118436455e-02 6.539190172612147478e+01 1.015489763937558507e+02
1.710422666954442672e+00 4.432389484361352189e-02 6.591681525617258330e+01 1.011143353950044883e+02
1.727875959474386436e+00 4.473500039643035081e-02 6.644023723833365125e+01 1.006552086177357523e+02
1.745329251994329534e+00 4.515019161131353376e-02 6.696268055319791301e+01 1.002606036292193750e+02
1.762782544514272853e+00 4.556978328327254690e-02 6.748414520076538281e+01 9.979441262174495364e+01
1.780235837034215951e+00 4.599394057746499648e-02 6.800463118103604643e+01 9.929492439126602221e+01
1.797689129554159271e+00 4.642285060841214867e-02 6.852445184754250818e+01 9.881875375856554911e+01
1.815142422074102591e+00 4.685674762836251200e-02 6.904387283165249301e+01 9.834775059766585059e+01
1.832595714594046132e+00 4.729555059653676313e-02 6.956289413336600091e+01 9.790384136932010506e+01
1.850049007113989230e+00 4.773915337597399444e-02 7.008151575268303191e+01 9.749140033332986377e+01
1.867502299633932550e+00 4.818735420649637030e-02 7.060026391339810914e+01 9.722919751548269574e+01
1.884955592153875870e+00 4.863997392052885060e-02 7.111918658252413650e+01 9.702025729364822837e+01
1.902408884673818967e+00 4.909688798167730767e-02 7.163828376006114240e+01 9.684245288243006655e+01
1.919862177193762509e+00 4.955797446003184364e-02 7.215772027167896852e+01 9.672513721478405557e+01
1.937315469713705829e+00 5.002299076618303697e-02 7.267790758005797613e+01 9.673874505202158502e+01
1.954768762233649149e+00 5.049179567580968503e-02 7.319884568519816526e+01 9.678424601585651033e+01
1.972222054753592246e+00 5.096426649673352349e-02 7.372053458709953588e+01 9.685711865192182302e+01
1.989675347273535566e+00 5.144028336957496422e-02 7.424337156708772056e+01 9.703046224741757442e+01
2.007128639793478886e+00 5.191958716332491230e-02 7.476754458008076654e+01 9.729339839382150501e+01
2.024581932313422428e+00 5.240205422447014733e-02 7.529305362607867380e+01 9.758294089357711698e+01
2.042035224833365525e+00 5.288756372360444574e-02 7.581997250249433762e+01 9.791204291054908992e+01
2.059488517353308623e+00 5.337598510351678621e-02 7.634882827318273257e+01 9.836745187245530531e+01
2.076941809873252165e+00 5.386707403091246099e-02 7.687962093814383024e+01 9.887408278046008547e+01
2.094395102393195263e+00 5.436071628229714042e-02 7.741235049737765905e+01 9.940567729065199387e+01
2.111848394913138804e+00 5.485679443570723457e-02 7.794741776442732828e+01 1.000383403884262918e+02
2.129301687433081902e+00 5.535512175803192908e-02 7.848504479764979180e+01 1.007534144662689215e+02
2.146754979953025444e+00 5.585552950984568749e-02 7.902523159704504963e+01 1.015061087854703885e+02
2.164208272472968542e+00 5.635789989216854340e-02 7.956814939482676152e+01 1.023188788395031423e+02
2.181661564992911639e+00 5.686209899960078390e-02 8.011427783882122355e+01 1.032545290218705532e+02
2.199114857512855181e+00 5.736790982341964662e-02 8.066361692902846414e+01 1.042405132275002444e+02
2.216568150032798723e+00 5.787522449571935040e-02 8.121616666544844065e+01 1.052550408913415367e+02
2.234021442552741821e+00 5.838391572077077790e-02 8.177261135779735923e+01 1.064344178067971711e+02
2.251474735072684918e+00 5.889377530328252647e-02 8.233295112390703707e+01 1.076666015120565447e+02
2.268928027592628460e+00 5.940470311726812197e-02 8.289718596377747417e+01 1.089297747580019688e+02
2.286381320112571558e+00 5.991652122134870362e-02 8.346594326772569161e+01 1.103639187570224323e+02
2.303834612632514656e+00 6.042908992364737913e-02 8.403931865948217705e+01 1.118602928740824183e+02
2.321287905152458197e+00 6.094231946051920784e-02 8.461731213904688786e+01 1.133905825111929317e+02
2.338741197672401739e+00 6.145596836774670779e-02 8.520059529891601358e+01 1.151230170058421010e+02
2.356194490192344837e+00 6.196998245655836735e-02 8.578926266948992918e+01 1.169053375007175219e+02
2.373647782712287935e+00 6.248411313051340649e-02 8.638334052610451863e+01 1.187698773659876395e+02
2.391101075232231477e+00 6.299830900353819985e-02 8.698361583658521567e+01 1.208275070955642292e+02
2.408554367752175018e+00 6.351234350352491509e-02 8.759008860093203452e+01 1.229647025627937751e+02
2.426007660272118116e+00 6.402617521851419746e-02 8.820305017813448956e+01 1.251994477863393342e+02
2.443460952792061214e+00 6.453953764601755294e-02 8.882307309568693654e+01 1.276485603603455701e+02
2.460914245312004756e+00 6.505243078603499540e-02 8.945015735358940390e+01 1.301327420282198091e+02
2.478367537831947853e+00 6.556454437512335143e-02 9.008502879772153449e+01 1.328858010903465470e+02
2.495820830351890951e+00 6.607584163644339426e-02 9.072787918088111780e+01 1.357324422756675233e+02
2.513274122871834493e+00 6.658618088320049366e-02 9.137908917195939296e+01 1.387443719912776885e+02
2.530727415391778035e+00 6.709532804161053021e-02 9.203925206861246977e+01 1.419996690881100108e+02
2.548180707911721132e+00 6.760328311167349002e-02 9.270849419338182429e+01 1.453396000958905177e+02
2.565634000431664230e+00 6.810984563114334811e-02 9.338764463472264765e+01 1.489802915824190279e+02
2.583087292951607772e+00 6.861474935008883558e-02 9.407670339263492565e+01 1.527693538825277813e+02
2.600540585471550870e+00 6.911799426850992467e-02 9.476933352677630751e+01 1.552016286938640235e+02
2.617993877991494411e+00 6.961958038640662927e-02 9.545828527617172199e+01 1.560139353094893409e+02
2.635447170511437509e+00 7.011897556942194021e-02 9.613654792525434800e+01 1.553633367584697851e+02
2.652900463031381051e+00 7.061587110796678501e-02 9.679484321668908819e+01 1.525858762166634790e+02
2.670353755551324149e+00 7.111026700204114981e-02 9.743317115047595678e+01 1.496863836753265673e+02
2.687807048071267246e+00 7.160216325164503459e-02 9.804315710413007423e+01 1.446671995741426997e+02
2.705260340591210788e+00 7.209155985677845324e-02 9.862138306587254988e+01 1.386481845726648316e+02
2.722713633111154330e+00 7.257845681744139188e-02 9.916470587734933417e+01 1.316692821156453874e+02
2.740166925631097428e+00 7.306285413363385051e-02 9.966968462078271784e+01 1.236348530482883774e+02
2.757620218151040525e+00 7.354475180535584300e-02 1.001337216669718231e+02 1.147320219602675877e+02
2.775073510670983623e+00 7.402414983260735548e-02 1.005568268601843016e+02 1.056015122919693994e+02
2.792526803190927165e+00 7.450040136362290344e-02 1.009376451300757225e+02 9.603753912870821807e+01
2.809980095710870707e+00 7.497303811754094105e-02 1.012826532672311970e+02 8.797178032305070872e+01
2.827433388230813804e+00 7.544206009436145444e-02 1.015979426400325139e+02 8.126574427818516710e+01
2.844886680750756902e+00 7.590746729408444360e-02 1.018885299948086356e+02 7.569642594511510936e+01
2.862339973270700444e+00 7.636925971670990854e-02 1.021581082176695361e+02 7.096060496808136975e+01
2.879793265790643542e+00 7.682743736223784925e-02 1.024090649214058288e+02 6.674362181476894307e+01
2.897246558310587083e+00 7.728200023066827962e-02 1.026445725326973673e+02 6.327810209850173351e+01
2.914699850830530181e+00 7.773306120980681688e-02 1.028660344778230069e+02 6.009554990696540244e+01
2.932153143350473723e+00 7.818066226560561882e-02 1.030755105115130732e+02 5.739911525046248642e+01
2.949606435870416821e+00 7.862480339806471319e-02 1.032733856408236619e+02 5.474760117124084502e+01
2.967059728390359918e+00 7.906548460718407223e-02 1.034622840284268932e+02 5.277062575113570375e+01
2.984513020910303460e+00 7.950332104863296057e-02 1.036422056743227387e+02 5.067743446472056945e+01
3.001966313430247002e+00 7.993840375997586511e-02 1.038134914029329678e+02 4.863059847129307656e+01
3.019419605950190100e+00 8.037073274121275812e-02 1.039783561987399025e+02 4.718054907154608912e+01
3.036872898470133197e+00 8.080030799234363958e-02 1.041368000617435570e+02 4.570322661316387070e+01
3.054326190990076739e+00 8.122765265821511871e-02 1.042888229919439027e+02 4.414434137574179573e+01
3.071779483510019837e+00 8.165290433184269059e-02 1.044345236233202883e+02 4.257610773527839143e+01
3.089232776029962935e+00 8.207606301322635522e-02 1.045759072733891202e+02 4.157517054128655332e+01
3.106686068549906476e+00 8.249712870236611262e-02 1.047129739421504127e+02 4.055916092286160790e+01
3.124139361069850018e+00 8.291642343524202596e-02 1.048457236296041515e+02 3.949765260335937711e+01
3.141592653589793116e+00 8.333424918732577902e-02 1.049741563357503367e+02 3.839452390844718366e+01
3.159045946109736214e+00 8.375060595861737178e-02 1.050982720605889824e+02 3.727891085674614402e+01
3.176499238629679756e+00 8.416549374911681813e-02 1.052184267313010793e+02 3.625836953023213027e+01
3.193952531149622853e+00 8.457896042035978335e-02 1.053359205044557569e+02 3.561699717408552601e+01
3.211405823669565951e+00 8.499155507522847264e-02 1.054507533800529586e+02 3.492197472513208112e+01
3.228859116189509493e+00 8.540327771372292764e-02 1.055629253580927269e+02 3.422137944867191806e+01
3.246312408709453035e+00 8.581412833584312061e-02 1.056724364385750619e+02 3.351523737799697500e+01
3.263765701229396576e+00 8.622410694158906541e-02 1.057792866214999634e+02 3.280357476788842064e+01
3.281218993749339674e+00 8.663352141207172896e-02 1.058834759068674174e+02 3.206228899856116499e+01
3.298672286269282772e+00 8.704264423192442646e-02 1.059850042946774238e+02 3.129570011374780947e+01
3.316125578789226314e+00 8.745147540114715790e-02 1.060838717849299968e+02 3.052567925804402194e+01
3.333578871309169411e+00 8.786001491973989552e-02 1.061806439978876142e+02 2.992736074071392594e+01
3.351032163829112509e+00 8.826826278770266709e-02 1.062759758531793324e+02 2.952947223162832202e+01
3.368485456349056051e+00 8.867674860246735347e-02 1.063698673508051371e+02 2.909205287556839536e+01
3.385938748868999149e+00 8.908551748531920444e-02 1.064623184907650142e+02 2.865080482171843457e+01
3.403392041388942246e+00 8.949456943625822003e-02 1.065533292730589778e+02 2.820901143010610568e+01
3.420845333908885344e+00 8.990390445528440022e-02 1.066428996976870280e+02 2.776669192420852994e+01
3.438298626428829330e+00 9.031370358801789344e-02 1.067310297646491364e+02 2.731179403307815079e+01
3.455751918948772872e+00 9.072436598910200989e-02 1.068177194739453455e+02 2.683072265535372480e+01
