# angles(rad), pulling distance(m), elastic band force(n), cable force(n)
0.000000000000000000e+00 4.803289237607708114e-04 1.389233854578766636e-01 1.658606885879231330e+00
1.745329251994329547e-02 9.664301161558042693e-04 2.797859251348048248e-01 3.346772392386163197e+00
3.490658503988659095e-02 1.458303577185100699e-03 4.225876190307846225e-01 5.064402609646208475e+00
5.235987755982988295e-02 1.955949306848659992e-03 5.672461830708055430e-01 6.806548401040109830e+00
6.981317007977318190e-02 2.459367305146481497e-03 7.137125096316103701e-01 8.571638497356197206e+00
8.726646259971647390e-02 2.968557572078566516e-03 8.619191800822526561e-01 1.035584851571269205e+01
1.047197551196597659e-01 3.483520107644914182e-03 1.011782220050269743e+00 1.215450939500717631e+01
1.221730476396030718e-01 4.004254911845524061e-03 1.163256376798932124e+00 1.396782762383593557e+01
1.396263401595463638e-01 4.530761984680397453e-03 1.316226356696162059e+00 1.578570817316961339e+01
1.570796326794896558e-01 5.063041326149532624e-03 1.470637868075693522e+00 1.761072739201343040e+01
1.745329251994329478e-01 5.601092936252931309e-03 1.626431751469745945e+00 1.943988978925375122e+01
1.919862177193762398e-01 6.144916814990592641e-03 1.783293555767543115e+00 2.123309290874604471e+01
2.094395102393195318e-01 6.694512962362517486e-03 1.941223280969085030e+00 2.302646008778216569e+01
2.268928027592628238e-01 7.249881378368704110e-03 2.100220927074371247e+00 2.482024051284035693e+01
2.443460952792061436e-01 7.811022063009154248e-03 2.260286494083402431e+00 2.661467311720333129e+01
2.617993877991494078e-01 8.377935016283866165e-03 2.421419981996177917e+00 2.840998710294488205e+01
2.792526803190927276e-01 8.950620238192841596e-03 2.583621390812698149e+00 3.020640243134901226e+01
2.967059728390359918e-01 9.529077728736078806e-03 2.746550989915354180e+00 3.193358615124618893e+01
3.141592653589793116e-01 1.011330748791357953e-02 2.909931917192781992e+00 3.359170103264318641e+01
3.316125578789226314e-01 1.070330951572534203e-02 3.073764172644982917e+00 3.523286314579829082e+01
3.490658503988658956e-01 1.129908381217136805e-02 3.238047756271955624e+00 3.685760758122175673e+01
3.665191429188092154e-01 1.190063037725165931e-02 3.402782668073700556e+00 3.846644889112237564e+01
3.839724354387524796e-01 1.250794921096621062e-02 3.567705595283763742e+00 3.999307351338540428e+01
4.014257279586957439e-01 1.312104031331502545e-02 3.732735822074400911e+00 4.147603425967027135e+01
4.188790204786390636e-01 1.373990368429810205e-02 3.897759322801762849e+00 4.290397421740952666e+01
4.363323129985823834e-01 1.436453932391544216e-02 4.062697290301636066e+00 4.428328498017742021e+01
4.537856055185256476e-01 1.499494723216704579e-02 4.227400907379364803e+00 4.559176520659197962e+01
4.712388980384689674e-01 1.563112740905291120e-02 4.391800475558143013e+00 4.684838543810378297e+01
4.886921905584122872e-01 1.627270024943660090e-02 4.555815580385231378e+00 4.807679382422869452e+01
5.061454830783556069e-01 1.691864609239632569e-02 4.719335977631504697e+00 4.931604149232162371e+01
5.235987755982988157e-01 1.756896493793208905e-02 4.882264040954864548e+00 5.049196884301097299e+01
5.410520681182421354e-01 1.822365678604389097e-02 5.044518811871425257e+00 5.160737567629635691e+01
5.585053606381854552e-01 1.888272163673172452e-02 5.206020009019067807e+00 5.266049235931307493e+01
5.759586531581286639e-01 1.954579689218641225e-02 5.366688779171884249e+00 5.367926314833466250e+01
5.934119456780719837e-01 2.021192365732304638e-02 5.526449037179287593e+00 5.471287363992836816e+01
6.108652381980153034e-01 2.088110193214163038e-02 5.685228323762008706e+00 5.568412646978666913e+01
6.283185307179586232e-01 2.155261802178141256e-02 5.842948979246941121e+00 5.664945438102994046e+01
6.457718232379019430e-01 2.222636091924036841e-02 5.999525908500177529e+00 5.755485863962594095e+01
6.632251157578452627e-01 2.290172300267428324e-02 6.154896848517039665e+00 5.845011694516315970e+01
6.806784082777885825e-01 2.357849254956590618e-02 6.309004592203010908e+00 5.930290717507789111e+01
6.981317007977317912e-01 2.425641219518114358e-02 6.461796709505917669e+00 6.011841293962842769e+01
7.155849933176751110e-01 2.493499313800459291e-02 6.613190852841468903e+00 6.090458092747069685e+01
7.330382858376184307e-01 2.561394070948786253e-02 6.763132364395372242e+00 6.165453398808496388e+01
7.504915783575617505e-01 2.629296836066655901e-02 6.911581465579428318e+00 6.237334433987319926e+01
7.679448708775049592e-01 2.697178188206465071e-02 7.058473239995197268e+00 6.305060408767149482e+01
7.853981633974482790e-01 2.765008186586142072e-02 7.203753887927454080e+00 6.369074298706453874e+01
8.028514559173914877e-01 2.832756982784707597e-02 7.347394797309243941e+00 6.430450898096239598e+01
8.203047484373349185e-01 2.900395264389359420e-02 7.489328761045937810e+00 6.487362229686165449e+01
8.377580409572781273e-01 2.967894559367037499e-02 7.629522745454647037e+00 6.541223692277021939e+01
8.552113334772213360e-01 3.035227431995365238e-02 7.767947638849840075e+00 6.592115846361859610e+01
8.726646259971647668e-01 3.102367597561682400e-02 7.904543586805486299e+00 6.638404225796020341e+01
8.901179185171079755e-01 3.169289977934716673e-02 8.039296358472800108e+00 6.682144334830044841e+01
9.075712110370512953e-01 3.235970715132988063e-02 8.172162155547390228e+00 6.721733147265639730e+01
9.250245035569946150e-01 3.302387155748884306e-02 8.303111711131343498e+00 6.757729433761427629e+01
9.424777960769379348e-01 3.368517633777604048e-02 8.432136376051621696e+00 6.791100954166788028e+01
9.599310885968812546e-01 3.434330460619537673e-02 8.559196721306372879e+00 6.821250218808432919e+01
9.773843811168245743e-01 3.499806102283503639e-02 8.684328363785475347e+00 6.851017943733204163e+01
9.948376736367677831e-01 3.564926114259366063e-02 8.807532132093426114e+00 6.878523774776857636e+01
1.012290966156711214e+00 3.629673061777106968e-02 8.928996623032487534e+00 6.914554139420053502e+01
1.029744258676654312e+00 3.694023768297095833e-02 9.048721836602659607e+00 6.949459458725014827e+01
1.047197551196597631e+00 3.757955929449780658e-02 9.166865846074912838e+00 6.992696552314647818e+01
1.064650843716540951e+00 3.821454921136664684e-02 9.283449633830068493e+00 7.035779244516723452e+01
1.082104136236484271e+00 3.884506861402067801e-02 9.398579592337721778e+00 7.084082383961899154e+01
1.099557428756427591e+00 3.947089454713961776e-02 9.512318364345272670e+00 7.136295801725890442e+01
1.117010721276370910e+00 4.009185980182544684e-02 9.624704069698925224e+00 7.190558884899488135e+01
1.134464013796314230e+00 4.070784844844430733e-02 9.735858008807817043e+00 7.252001219867538850e+01
1.151917306316257328e+00 4.131874964571939646e-02 9.845780181671951681e+00 7.313006351084058565e+01
1.169370598836200870e+00 4.192433502957267771e-02 9.954577007819684908e+00 7.382358627382592431e+01
1.186823891356143967e+00 4.252450515440068385e-02 1.006229234178739596e+01 7.454724130043550190e+01
1.204277183876087509e+00 4.311916775662196638e-02 1.016893107803013763e+01 7.527506745465635163e+01
1.221730476396030607e+00 4.370822605975587666e-02 1.027462998906091762e+01 7.610442495503274074e+01
1.239183768915973927e+00 4.429149731725577632e-02 1.037938907487973417e+01 7.695279578916799323e+01
1.256637061435917246e+00 4.486890653113163180e-02 1.048323754055038748e+01 7.782932932612493460e+01
1.274090353955860566e+00 4.544038181213097549e-02 1.058627985670521809e+01 7.879397671290796268e+01
1.291543646475803886e+00 4.600585433030895260e-02 1.068851602334422601e+01 7.977043374032632528e+01
1.308996938995747206e+00 4.656522565037359701e-02 1.078997927211123375e+01 8.079056876759580064e+01
1.326450231515690525e+00 4.711839599904884407e-02 1.089076275348886291e+01 8.190685444918779012e+01
1.343903524035633623e+00 4.766531493076939241e-02 1.099086646747711171e+01 8.304063321763889860e+01
1.361356816555577165e+00 4.820593578518250766e-02 1.109031129632666079e+01 8.421018734373009806e+01
1.378810109075520263e+00 4.874021600911378205e-02 1.118919622904281219e+01 8.548529213310899877e+01
1.396263401595463582e+00 4.926811755125205111e-02 1.128752126562556235e+01 8.678431788992392626e+01
1.413716694115406902e+00 4.978960732783341281e-02 1.138528640607491660e+01 8.810766190998705838e+01
1.431169986635350222e+00 5.030465775381694898e-02 1.148260155629894896e+01 8.955760866537423226e+01
1.448623279155293542e+00 5.081324732896380647e-02 1.157947103874141170e+01 9.104156887904025552e+01
1.466076571675236861e+00 5.131536126165318207e-02 1.167589485340230304e+01 9.255581270108956460e+01
1.483529864195179959e+00 5.181099210503027630e-02 1.177194316762742865e+01 9.416967367717599302e+01
1.500983156715123501e+00 5.230014037010635025e-02 1.186765534940239064e+01 9.585684063577109271e+01
1.518436449235066599e+00 5.278281506879262119e-02 1.196303139872718901e+01 9.757926091991640760e+01
1.535889741755009918e+00 5.325903412685782656e-02 1.205809536355311629e+01 9.936177766906459397e+01
1.553343034274953238e+00 5.372882459310330400e-02 1.215292906249910843e+01 1.012676987415435548e+02
1.570796326794896558e+00 5.419222255775230784e-02 1.224753249556516899e+01 1.032126341595061660e+02
1.588249619314839878e+00 5.464927268182608738e-02 1.234190566275129619e+01 1.051958018770705365e+02
1.605702911834782975e+00 5.510002723245170653e-02 1.243612531145429756e+01 1.073045004655799062e+02
1.623156204354726517e+00 5.554454232643916273e-02 1.253021797876992594e+01 1.094861994316359386e+02
1.640609496874669837e+00 5.598286581814230362e-02 1.262418366469817954e+01 1.117144450430708105e+02
1.658062789394613157e+00 5.641507516768393821e-02 1.271804400980272298e+01 1.140091741325999664e+02
1.675516081914556255e+00 5.684125115834700454e-02 1.281187920895038701e+01 1.164450744718226218e+02
1.692969374434499574e+00 5.726147304546091305e-02 1.290568926214116985e+01 1.189278052913392543e+02
1.710422666954442672e+00 5.767583890514509787e-02 1.299947416937507150e+01 1.214524442414869441e+02
1.727875959474386436e+00 5.808445260079574124e-02 1.309330112145033098e+01 1.241067299116119926e+02
1.745329251994329534e+00 5.848739696675881589e-02 1.318720447386102634e+01 1.268586940933035550e+02
1.762782544514272853e+00 5.888482274993687982e-02 1.328118422660715225e+01 1.296422462159907241e+02
1.780235837034215951e+00 5.927683178423061305e-02 1.337525243565699995e+01 1.324891378102920783e+02
1.797689129554159271e+00 5.966355219820360795e-02 1.346949946756939909e+01 1.355044408103559022e+02
1.815142422074102591e+00 6.004524716449187449e-02 1.356392532234434789e+01 1.385132658636682947e+02
1.832595714594046132e+00 6.042200686911823604e-02 1.365852999998184991e+01 1.415740350396644089e+02
1.850049007113989230e+00 6.079423985445842060e-02 1.375335989206606691e+01 1.446340992792192139e+02
1.867502299633932550e+00 6.116200035007558766e-02 1.384844498244253685e+01 1.478018412675138222e+02
1.884955592153875870e+00 6.152565783389257054e-02 1.394378527111125976e+01 1.509023857842997245e+02
1.902408884673818967e+00 6.188526569827832585e-02 1.403933282915519065e+01 1.539814368748409095e+02
1.919862177193762509e+00 6.224115888560185356e-02 1.413478641754590726e+01 1.564924256480636586e+02
1.937315469713705829e+00 6.259337342733072018e-02 1.423014603628340780e+01 1.590369606547313879e+02
1.954768762233649149e+00 6.294224413883446612e-02 1.432541168536769050e+01 1.614769055778483562e+02
1.972222054753592246e+00 6.328777102011311217e-02 1.442040303377408250e+01 1.636481491098988386e+02
1.989675347273535566e+00 6.363029769535828717e-02 1.451478837168704850e+01 1.651019987283478088e+02
2.007128639793478886e+00 6.396983478881070051e-02 1.460856769910658493e+01 1.665555125896536310e+02
2.024581932313422428e+00 6.430663851657035524e-02 1.470174101603269534e+01 1.678861700004281943e+02
2.042035224833365525e+00 6.464079129715982752e-02 1.479430832246537619e+01 1.691759794338699123e+02
2.059488517353308623e+00 6.497244177511432572e-02 1.488580123092931906e+01 1.695159268270002428e+02
2.076941809873252165e+00 6.530176541086808728e-02 1.497597228402275960e+01 1.692663989134975964e+02
2.094395102393195263e+00 6.562878673055301537e-02 1.506482148174569602e+01 1.689557281344311264e+02
2.111848394913138804e+00 6.595379196996040139e-02 1.515234882409813366e+01 1.684475994287996912e+02
2.129301687433081902e+00 6.627678112909020369e-02 1.523855431108006719e+01 1.678889905168683185e+02
2.146754979953025444e+00 6.659793991158716175e-02 1.532343794269149839e+01 1.671828982221048250e+02
2.164208272472968542e+00 6.691738132257600558e-02 1.540699971893242726e+01 1.663665493981104078e+02
2.181661564992911639e+00 6.723513201731534661e-02 1.548923963980285201e+01 1.654846671550047290e+02
2.199114857512855181e+00 6.755145338766110896e-02 1.557015770530277621e+01 1.644150074357040410e+02
2.216568150032798723e+00 6.786634543361325100e-02 1.564975391543219629e+01 1.632938012394483280e+02
2.234021442552741821e+00 6.817994718251112196e-02 1.572802827019111405e+01 1.620491615111753276e+02
2.251474735072684918e+00 6.849239848099000771e-02 1.580457323953670823e+01 1.598264229978103401e+02
2.268928027592628460e+00 6.880369932904993602e-02 1.587921936003877299e+01 1.571764851977759747e+02
2.286381320112571558e+00 6.911407981156623970e-02 1.595196663169730478e+01 1.543362790273348253e+02
2.303834612632514656e+00 6.942358112225804900e-02 1.602281505451231070e+01 1.514042271936136501e+02
2.321287905152458197e+00 6.973224338221459262e-02 1.609176462848378364e+01 1.483826810419847675e+02
2.338741197672401739e+00 7.004029180951949762e-02 1.615881535361172539e+01 1.451862500398248983e+02
2.356194490192344837e+00 7.034772640417276401e-02 1.622396722989614304e+01 1.419262535793154996e+02
2.373647782712287935e+00 7.065465649220743771e-02 1.628720066025324797e+01 1.385113022379630650e+02
2.391101075232231477e+00 7.096123386731217897e-02 1.634840203699433658e+01 1.347187009521914831e+02
2.408554367752175018e+00 7.126745852948698778e-02 1.640757136011940531e+01 1.308676264094906685e+02
2.426007660272118116e+00 7.157350184252669889e-02 1.646470862962845416e+01 1.268884592638770812e+02
2.443460952792061214e+00 7.187945110994181652e-02 1.651979127424406357e+01 1.227725873170650601e+02
2.460914245312004756e+00 7.218530633173234068e-02 1.657281582911792128e+01 1.186011562183930153e+02
2.478367537831947853e+00 7.249129847274371485e-02 1.662378612668379319e+01 1.143058154726006563e+02
2.495820830351890951e+00 7.279745457803335484e-02 1.667271412955119558e+01 1.099897855721432762e+02
2.513274122871834493e+00 7.310380823825667063e-02 1.671959983772013558e+01 1.056269579448363203e+02
2.530727415391778035e+00 7.341058501785199808e-02 1.676452869001850132e+01 1.013504487237892846e+02
2.548180707911721132e+00 7.371778491681936496e-02 1.680750809778446708e+01 9.706757373835462488e+01
2.565634000431664230e+00 7.402550716591795033e-02 1.684878382875172065e+01 9.329017767979512143e+01
2.583087292951607772e+00 7.433391462408495132e-02 1.688846799533216725e+01 8.970448020447088311e+01
2.600540585471550870e+00 7.464300729132040957e-02 1.692656708295046286e+01 8.612440744302676876e+01
2.617993877991494411e+00 7.495295979772943762e-02 1.696342102565047938e+01 8.325948720685870796e+01
2.635447170511437509e+00 7.526386429360211461e-02 1.699902982343222391e+01 8.036851277330137577e+01
2.652900463031381051e+00 7.557572077893846829e-02 1.703339347629568934e+01 7.747778725176280545e+01
2.670353755551324149e+00 7.588874971661388469e-02 1.706671987425649561e+01 7.500417453459006367e+01
2.687807048071267246e+00 7.620295810967391004e-02 1.709910184320430204e+01 7.274284059768297084e+01
2.705260340591210788e+00 7.651838358890943048e-02 1.713053938313911218e+01 7.047811938622713512e+01
2.722713633111154330e+00 7.683511341163089259e-02 1.716103249406092601e+01 6.820051848386447091e+01
2.740166925631097428e+00 7.715314757783828248e-02 1.719069846174635074e+01 6.619264724669304201e+01
2.757620218151040525e+00 7.747254530920860693e-02 1.721967549581215451e+01 6.448794741593680158e+01
2.775073510670983623e+00 7.779334981817023764e-02 1.724796359625832665e+01 6.278163698374276436e+01
2.792526803190927165e+00 7.811556110472314685e-02 1.727556276308487071e+01 6.108279669753661523e+01
2.809980095710870707e+00 7.843923928219352637e-02 1.730247299629179025e+01 5.938048060564712216e+01
2.827433388230813804e+00 7.876440223978077582e-02 1.732869429587908172e+01 5.768335000188098149e+01
2.844886680750756902e+00 7.909104997748486743e-02 1.735443076628999748e+01 5.644314327706658929e+01
2.862339973270700444e+00 7.941922538585953484e-02 1.737968951954695385e+01 5.521783525326144115e+01
2.879793265790643542e+00 7.974893681394534806e-02 1.740447055564995438e+01 5.399801104569785082e+01
2.897246558310587083e+00 8.008018426174229321e-02 1.742877387459899197e+01 5.278510232666681645e+01
2.914699850830530181e+00 8.041298497439244852e-02 1.745259947639407372e+01 5.157642552440825767e+01
2.932153143350473723e+00 8.074734586812361281e-02 1.747594736103519963e+01 5.037374926937953745e+01
2.949606435870416821e+00 8.108326694293581383e-02 1.749881752852236616e+01 4.917816086883692606e+01
2.967059728390359918e+00 8.142077164952325752e-02 1.752133054034396409e+01 4.824500273390075478e+01
2.984513020910303460e+00 8.175991511587209215e-02 1.754353469800808796e+01 4.741321824252310790e+01
3.001966313430247002e+00 8.210069734198230385e-02 1.756543000151474487e+01 4.658695301760444352e+01
3.019419605950190100e+00 8.244311832785392036e-02 1.758701645086392773e+01 4.576616231518576683e+01
3.036872898470133197e+00 8.278740626567943073e-02 1.760829404605564008e+01 4.492100909393043651e+01
3.054326190990076739e+00 8.313375536063201399e-02 1.762926278708988193e+01 4.405791466410624224e+01
3.071779483510019837e+00 8.348216561271165626e-02 1.764992267396665682e+01 4.320274157527188663e+01
3.089232776029962935e+00 8.383263702191835753e-02 1.767027370668595410e+01 4.235538377483774752e+01
3.106686068549906476e+00 8.418559821445083247e-02 1.769031588524778797e+01 4.146532213993183547e+01
3.124139361069850018e+00 8.454111239557139668e-02 1.771005934396990256e+01 4.059923126119285541e+01
3.141592653589793116e+00 8.489917956528003629e-02 1.772962446886784349e+01 3.998979197276620567e+01
3.159045946109736214e+00 8.525999410798441869e-02 1.774901125994161433e+01 3.936656744304983135e+01
3.176499238629679756e+00 8.562388523878808333e-02 1.776821971719121862e+01 3.871652921541232928e+01
3.193952531149622853e+00 8.599085295769105797e-02 1.778724984061664927e+01 3.807623817880676143e+01
3.211405823669565951e+00 8.636085997893783173e-02 1.780610163021790626e+01 3.744923525288042754e+01
3.228859116189509493e+00 8.673323202103593033e-02 1.782477508599499672e+01 3.689802973120839624e+01
3.246312408709453035e+00 8.710796908398539540e-02 1.784327020794791352e+01 3.635268470544009745e+01
3.263765701229396576e+00 8.748507116778619919e-02 1.786158699607666023e+01 3.581310035596874286e+01
3.281218993749339674e+00 8.786453827243835557e-02 1.787972545038124039e+01 3.527917935168201069e+01
3.298672286269282772e+00 8.824637039794185067e-02 1.789768557086164336e+01 3.475082677289496758e+01
3.316125578789226314e+00 8.863056754429671225e-02 1.791546735751787622e+01 3.422795003712934658e+01
3.333578871309169411e+00 8.901586375465299350e-02 1.793307081034993899e+01 3.382122032778110565e+01
3.351032163829112509e+00 8.940098455619399642e-02 1.795054927868583761e+01 3.362912940872900691e+01
3.368485456349056051e+00 8.978592994891972101e-02 1.796794954984657977e+01 3.352639801479748627e+01
3.385938748868999149e+00 9.017069993283016727e-02 1.798527162383217259e+01 3.342313568668056689e+01
3.403392041388942246e+00 9.055529450792532131e-02 1.800251550064260897e+01 3.331934366685729998e+01
3.420845333908885344e+00 9.093971367420519702e-02 1.801968118027789600e+01 3.321502320007445519e+01
3.438298626428829330e+00 9.132395743166978053e-02 1.803676866273802659e+01 3.311017553335177155e+01
3.455751918948772872e+00 9.170802578031908570e-02 1.805377794802300784e+01 3.300480191598708046e+01
