# angles(rad), pulling distance(m), elastic band force(n), cable force(n)
0.000000000000000000e+00 2.000196623113538810e-02 3.049392138012468802e-03 6.551536824732463911e-03
1.745329251994329547e-02 4.060349321408873724e-02 6.130881881405841026e-03 1.292330481110776953e-02
3.490658503988659095e-02 6.180458094886004394e-02 9.244469230180117972e-03 1.913260985456500390e-02
5.235987755982988295e-02 8.360522943544931862e-02 1.239015418433529921e-02 2.519485406576606537e-02
6.981317007977318190e-02 1.060052102906800658e-01 1.556793674387138386e-02 3.112410788113482291e-02
8.726646259971647390e-02 1.290041991819178002e-01 1.877781690878837367e-02 3.693299264029491907e-02
1.047197551196597659e-01 1.525978528228680853e-01 2.202066380618365390e-02 4.265313680261761942e-02
1.221730476396030718e-01 1.767813209669689689e-01 2.529768049312305228e-02 4.830922792350399175e-02
1.396263401595463638e-01 2.015464688472128341e-01 2.860886696960656880e-02 5.390545249339723927e-02
1.570796326794896558e-01 2.268826664894732503e-01 3.195470736023495878e-02 5.946863220246593335e-02
1.745329251994329478e-01 2.527820859545906185e-01 3.533614300633716732e-02 6.501589787473679993e-02
1.919862177193762398e-01 2.792186570331379736e-01 3.875317390791318400e-02 7.058954496971282799e-02
2.094395102393195318e-01 3.061923797251153156e-01 4.220580006496300884e-02 7.613250663402454377e-02
2.268928027592628238e-01 3.336625669359123414e-01 4.569454260125687534e-02 8.178260865033119831e-02
2.443460952792061436e-01 3.616141949174049852e-01 4.921942835518924170e-02 8.747094673043590007e-02
2.617993877991494078e-01 3.900472636695931916e-01 5.278045732676012181e-02 9.315673191412499055e-02
2.792526803190927276e-01 4.188734675116366213e-01 5.637762951596949484e-02 9.914479262098629953e-02
2.967059728390359918e-01 4.480348154898455837e-01 6.000974037559274332e-02 1.053325436133299986e-01
3.141592653589793116e-01 4.775313076042200788e-01 6.367654039532238963e-02 1.115541260266586648e-01
3.316125578789226314e-01 5.073629438547601067e-01 6.737802957515842683e-02 1.178167501934827971e-01
3.490658503988658956e-01 5.375297242414657228e-01 7.111420791510085493e-02 1.241207346614177087e-01
3.665191429188092154e-01 5.680316487643368717e-01 7.488507541514967392e-02 1.304663839777339684e-01
3.839724354387524796e-01 5.988687174233735533e-01 7.869063207530489767e-02 1.368539894501515919e-01
4.014257279586957439e-01 6.300409302185757676e-01 8.253087789556651233e-02 1.432838298585569492e-01
4.188790204786390636e-01 6.614298835813684496e-01 8.640581287593453175e-02 1.503210735689608224e-01
4.363323129985823834e-01 6.929847995258411331e-01 9.031543701640892818e-02 1.576954966913705070e-01
4.537856055185256476e-01 7.247056780519938179e-01 9.425758893215387124e-02 1.650797489259991924e-01
4.712388980384689674e-01 7.565925191598265043e-01 9.823024655580150921e-02 1.724662807460659031e-01
4.886921905584122872e-01 7.886241255575874298e-01 1.022334098873518698e-01 1.800556529400227368e-01
5.061454830783556069e-01 8.207713835646753830e-01 1.062670789268049393e-01 1.879076202123822759e-01
5.235987755982988157e-01 8.530225283248948909e-01 1.103312536741607036e-01 1.959363958231082059e-01
5.410520681182421354e-01 8.853636382969529706e-01 1.144259341294191767e-01 2.041638677496708798e-01
5.585053606381854552e-01 9.177762262248969627e-01 1.185511202925803725e-01 2.126301425991302674e-01
5.759586531581286639e-01 9.502513920447395179e-01 1.227068121636442632e-01 2.212839722073470516e-01
5.934119456780719837e-01 9.827803519686608702e-01 1.268915402076704335e-01 2.300483138982725717e-01
6.108652381980153034e-01 1.015354632688305392e+00 1.311042424787053629e-01 2.389417286183717071e-01
6.283185307179586232e-01 1.047966761048117368e+00 1.353449189767490235e-01 2.480203296743411501e-01
6.457718232379019430e-01 1.080610329987260698e+00 1.396131635080891387e-01 2.572570882599903852e-01
6.632251157578452627e-01 1.113281243881155680e+00 1.439079391550067422e-01 2.665957835125573050e-01
6.806784082777885825e-01 1.145977021711001465e+00 1.482292459175018617e-01 2.760874379003808721e-01
6.981317007977317912e-01 1.178696144581396821e+00 1.525761896653885785e-01 2.856659358204721721e-01
7.155849933176751110e-01 1.211438594669231428e+00 1.569484682124168695e-01 2.953541332883503623e-01
7.330382858376184307e-01 1.244204424513477569e+00 1.613454907103520075e-01 3.051291309017670206e-01
7.504915783575617505e-01 1.276993553667036263e+00 1.657668759876797515e-01 3.150036274201460373e-01
7.679448708775049592e-01 1.309805782382980288e+00 1.702120402684439426e-01 3.249613325193095315e-01
7.853981633974482790e-01 1.342640821577380850e+00 1.746807515886538154e-01 3.350264816491151931e-01
8.028514559173914877e-01 1.375498322631911297e+00 1.791718847781034185e-01 3.451283141875272631e-01
8.203047484373349185e-01 1.408376083266935419e+00 1.836852271835910655e-01 3.553526894515336987e-01
8.377580409572781273e-01 1.441272491002321354e+00 1.882204886799645205e-01 3.656874678712046522e-01
8.552113334772213360e-01 1.474186836117892918e+00 1.927767115404091791e-01 3.760656196359655201e-01
8.726646259971647668e-01 1.507118450755881467e+00 1.973535534355531917e-01 3.865335181296617462e-01
8.901179185171079755e-01 1.540062608443280689e+00 2.019506429418514437e-01 3.971358703138908597e-01
9.075712110370512953e-01 1.573018506667036132e+00 2.065674874429546948e-01 4.078151779190615778e-01
9.250245035569946150e-01 1.605984548259314248e+00 2.112032321072569996e-01 4.185454148300642441e-01
9.424777960769379348e-01 1.638955837967271068e+00 2.158574242723269587e-01 4.294026195710231031e-01
9.599310885968812546e-01 1.671931734275940329e+00 2.205295931595040448e-01 4.403298467824149354e-01
9.773843811168245743e-01 1.704906933361465482e+00 2.252192385835151411e-01 4.513852786181963839e-01
9.948376736367677831e-01 1.737879642878032538e+00 2.299258364529346010e-01 4.625189766464562480e-01
1.012290966156711214e+00 1.770844953869052496e+00 2.346488445518153387e-01 4.737718543704791951e-01
1.029744258676654312e+00 1.803800254140484283e+00 2.393877081711996146e-01 4.851098665890941630e-01
1.047197551196597631e+00 1.836739896600050770e+00 2.441418653353905899e-01 4.965765831660288177e-01
1.064650843716540951e+00 1.869661758590106082e+00 2.489107514870203541e-01 5.081191281263747195e-01
1.082104136236484271e+00 1.902558294630964042e+00 2.536938035738849351e-01 5.198213634086262802e-01
1.099557428756427591e+00 1.935427135439567348e+00 2.584904635313102772e-01 5.316041868436199858e-01
1.117010721276370910e+00 1.968261755984122674e+00 2.633001811851188867e-01 5.435356852820542040e-01
1.134464013796314230e+00 2.001056918307135390e+00 2.681224166182530344e-01 5.555985117759980607e-01
1.151917306316257328e+00 2.033809018996916240e+00 2.729566420531495674e-01 5.677677612887062075e-01
1.169370598836200870e+00 2.066509469134084398e+00 2.778023433051177715e-01 5.801337513904994969e-01
1.186823891356143967e+00 2.099153280794239684e+00 2.826590208613944943e-01 5.926394821513748523e-01
1.204277183876087509e+00 2.131735762873251616e+00 2.875258258338868611e-01 6.052376846569095248e-01
1.221730476396030607e+00 2.164248390117578857e+00 2.924021927629818496e-01 6.180366945991301320e-01
1.239183768915973927e+00 2.196684502350436219e+00 2.972876414947847046e-01 6.310181410643750377e-01
1.256637061435917246e+00 2.229038454397810565e+00 3.021817099527329686e-01 6.441695629421655411e-01
1.274090353955860566e+00 2.261303553496629704e+00 3.070839203609175838e-01 6.575145147196436168e-01
1.291543646475803886e+00 2.293469796293204688e+00 3.119932828431279948e-01 6.710568765767931376e-01
1.308996938995747206e+00 2.325530690752469987e+00 3.169093677421538358e-01 6.848069204886659822e-01
1.326450231515690525e+00 2.357479526355715560e+00 3.218317622333031758e-01 6.987786193831111436e-01
1.343903524035633623e+00 2.389307954310535997e+00 3.267598484882083820e-01 7.129861956295088232e-01
1.361356816555577165e+00 2.421005562159551872e+00 3.316927736931210013e-01 7.274503816319513039e-01
1.378810109075520263e+00 2.452564946817947789e+00 3.366301566676180301e-01 7.421823655903918571e-01
1.396263401595463582e+00 2.483978598314766639e+00 3.415715963927030141e-01 7.571922392094332377e-01
1.413716694115406902e+00 2.515236474373709452e+00 3.465160212955559205e-01 7.724474843174333749e-01
1.431169986635350222e+00 2.546327786638098889e+00 3.514630764993462719e-01 7.880916642924863380e-01
1.448623279155293542e+00 2.577244570878948426e+00 3.564124104001467064e-01 8.040713358830866575e-01
1.466076571675236861e+00 2.607978955085423323e+00 3.613629042454382656e-01 8.202701364462289257e-01
1.483529864195179959e+00 2.638516902250573892e+00 3.663142205824876929e-01 8.369970685770228291e-01
1.500983156715123501e+00 2.668850744489348781e+00 3.712659484842284474e-01 8.540903023352962586e-01
1.518436449235066599e+00 2.698973908578776726e+00 3.762175608550900607e-01 8.715141421197183380e-01
1.535889741755009918e+00 2.728873722557049408e+00 3.811704149102287387e-01 8.898064572425997687e-01
1.553343034274953238e+00 2.758544537758777171e+00 3.861259913494963225e-01 9.088308503583348852e-01
1.570796326794896558e+00 2.787979370550409453e+00 3.910859215545230416e-01 9.287001124960923004e-01
1.588249619314839878e+00 2.817169311524040154e+00 3.960516227150694957e-01 9.494858212254949636e-01
1.605702911834782975e+00 2.846111063967644572e+00 4.010246475150487377e-01 9.710826393040254967e-01
1.623156204354726517e+00 2.874794782969317453e+00 4.060060012521758410e-01 9.936506029525233874e-01
1.640609496874669837e+00 2.903218783369283962e+00 4.109947677086653317e-01 1.016561340166699079e+00
1.658062789394613157e+00 2.931374764257989263e+00 4.159882820226989963e-01 1.039695246045936994e+00
1.675516081914556255e+00 2.959260564497752100e+00 4.209844902528486754e-01 1.062950004601297183e+00
1.692969374434499574e+00 2.986871912789671235e+00 4.259818857542774784e-01 1.086517092303424192e+00
1.710422666954442672e+00 3.014204193629420381e+00 4.309775920841539265e-01 1.110107508774719420e+00
1.727875959474386436e+00 3.041256413577130502e+00 4.359700714394038057e-01 1.133859826734113341e+00
1.745329251994329534e+00 3.068025754478864719e+00 4.409579218553716373e-01 1.157876434389387255e+00
1.762782544514272853e+00 3.094508805246290351e+00 4.459384646600836333e-01 1.181878743552728039e+00
1.780235837034215951e+00 3.120705139368352032e+00 4.509103567009420943e-01 1.206037197825197138e+00
1.797689129554159271e+00 3.146614431897765130e+00 4.558722861169439144e-01 1.230346794788871101e+00
1.815142422074102591e+00 3.172236544268614900e+00 4.608222415207677836e-01 1.254611056159549154e+00
1.832595714594046132e+00 3.197571612912449179e+00 4.657586339057229741e-01 1.278903648386871650e+00
1.850049007113989230e+00 3.222619990852012339e+00 4.706802516498511668e-01 1.303297531648720531e+00
1.867502299633932550e+00 3.247382485330477575e+00 4.755858924051777348e-01 1.327760169971771376e+00
1.884955592153875870e+00 3.271860973395343208e+00 4.804740834888976964e-01 1.352143782420739848e+00
1.902408884673818967e+00 3.296057742680043923e+00 4.853433136368447420e-01 1.376389317647134014e+00
1.919862177193762509e+00 3.319975151864777096e+00 4.901925289278855624e-01 1.400597490397767819e+00
1.937315469713705829e+00 3.343616443014695516e+00 4.950207045800379957e-01 1.424703718297403165e+00
1.954768762233649149e+00 3.366985099524357761e+00 4.998268512822696130e-01 1.448679067433766843e+00
1.972222054753592246e+00 3.390084675517343271e+00 5.046100221496715443e-01 1.472506032230977535e+00
1.989675347273535566e+00 3.412918734498114670e+00 5.093693202112722362e-01 1.496173274634140515e+00
2.007128639793478886e+00 3.435490590699199043e+00 5.141039062608373511e-01 1.519689863425330856e+00
2.024581932313422428e+00 3.457803498319671487e+00 5.188130068046011845e-01 1.543057020632538245e+00
2.042035224833365525e+00 3.479861172819767923e+00 5.234959217264189002e-01 1.566243098604423345e+00
2.059488517353308623e+00 3.501666537166514548e+00 5.281520311628833397e-01 1.589308146905720198e+00
2.076941809873252165e+00 3.523223148691308815e+00 5.327808009439843895e-01 1.612215067827873938e+00
2.094395102393195263e+00 3.544535163855638604e+00 5.373817858181261231e-01 1.634927710925261346e+00
2.111848394913138804e+00 3.565604542463076676e+00 5.419546295573629546e-01 1.657627290028944600e+00
2.129301687433081902e+00 3.586435764287574823e+00 5.464990384890533459e-01 1.680124198744624708e+00
2.146754979953025444e+00 3.607031501462635514e+00 5.510146782316432956e-01 1.702528682410999084e+00
2.164208272472968542e+00 3.627395481240117903e+00 5.555012063214121998e-01 1.724733759132878186e+00
2.181661564992911639e+00 3.647531076730460509e+00 5.599585980222552273e-01 1.746873929099018286e+00
2.199114857512855181e+00 3.667441738350756708e+00 5.643868546776381612e-01 1.768940828670813037e+00
2.216568150032798723e+00 3.687130306519859957e+00 5.687859535335558769e-01 1.790967785589601791e+00
2.234021442552741821e+00 3.706601748864119639e+00 5.731559781571267109e-01 1.812791730072369489e+00
2.251474735072684918e+00 3.725856065383535753e+00 5.774970484961700068e-01 1.834880598498299209e+00
2.268928027592628460e+00 3.744901145898408057e+00 5.818094062050815918e-01 1.856530238219844975e+00
2.286381320112571558e+00 3.763737333697261711e+00 5.860934644383567482e-01 1.878531820694926635e+00
2.303834612632514656e+00 3.782366183418891303e+00 5.903494058343741191e-01 1.900675838493122383e+00
2.321287905152458197e+00 3.800796492878140587e+00 5.945777016256180714e-01 1.922342089839867985e+00
2.338741197672401739e+00 3.819028262075009561e+00 5.987800749147751400e-01 1.945012859359892099e+00
2.356194490192344837e+00 3.837061491009497782e+00 6.029565257018454361e-01 1.967927957520446469e+00
2.373647782712287935e+00 3.854905740513251633e+00 6.071092846554747569e-01 1.991107162174819312e+00
2.391101075232231477e+00 3.872564963845839703e+00 6.112399015128487934e-01 2.014857493212676598e+00
2.408554367752175018e+00 3.890039161007261548e+00 6.153487822728059831e-01 2.039092727816802508e+00
2.426007660272118116e+00 3.907328331997517168e+00 6.194391693425994605e-01 2.065276602193383493e+00
2.443460952792061214e+00 3.924433088176676243e+00 6.235110627222294477e-01 2.091765505207277887e+00
2.460914245312004756e+00 3.941381356681357584e+00 6.275664782227221572e-01 2.116211558715262342e+00
2.478367537831947853e+00 3.958173137511561190e+00 6.316069345462661522e-01 2.141755410121679581e+00
2.495820830351890951e+00 3.974808430667287062e+00 6.356324316928615437e-01 2.167626421941623693e+00
2.513274122871834493e+00 3.991287236148535200e+00 6.396463239903883435e-01 2.195680879040063704e+00
2.530727415391778035e+00 4.007609553955305159e+00 6.436486969016858017e-01 2.224200524797075751e+00
2.548180707911721132e+00 4.023775384087597828e+00 6.476406776830593293e-01 2.253792207599932595e+00
2.565634000431664230e+00 4.039784726545412319e+00 6.516245042519100972e-01 2.285144460050224424e+00
2.583087292951607772e+00 4.055637581328749519e+00 6.556001766082379945e-01 2.317029110733665576e+00
2.600540585471550870e+00 4.071333948437609429e+00 6.595698805250518326e-01 2.350764411130552567e+00
2.617993877991494411e+00 4.086873827871991161e+00 6.635347416621966143e-01 2.385796114060513506e+00
2.635447170511437509e+00 4.102257219631895602e+00 6.674947600196723396e-01 2.421487789745690566e+00
2.652900463031381051e+00 4.117484123717321864e+00 6.714530887587067953e-01 2.459830867522336373e+00
2.670353755551324149e+00 4.132554540128270837e+00 6.754098538606533308e-01 2.499031510747791618e+00
2.687807048071267246e+00 4.147490905036517184e+00 6.793658766682602046e-01 2.535752862441794431e+00
2.705260340591210788e+00 4.162307303737192932e+00 6.833236044948348686e-01 2.572284584562610998e+00
2.722713633111154330e+00 4.177003736230298969e+00 6.872830373403773230e-01 2.609432134690938820e+00
2.740166925631097428e+00 4.191580202515834408e+00 6.912459505137907856e-01 2.648403959121738094e+00
2.757620218151040525e+00 4.206036702593799248e+00 6.952138487954616641e-01 2.689088564633008716e+00
2.775073510670983623e+00 4.220373236464194378e+00 6.991867321853898476e-01 2.730512412586312276e+00
2.792526803190927165e+00 4.234589804127018908e+00 7.031673955640936891e-01 2.774653435547406843e+00
2.809980095710870707e+00 4.248686405582272840e+00 7.071563573668840919e-01 2.820007283273494370e+00
2.827433388230813804e+00 4.262664428907496195e+00 7.111541898037863074e-01 2.866367844761219974e+00
2.844886680750756902e+00 4.276541474975234181e+00 7.151636886373168300e-01 2.911976331986454891e+00
2.862339973270700444e+00 4.290317543785486798e+00 7.191848538674756597e-01 2.958397123024086639e+00
2.879793265790643542e+00 4.303992635338254047e+00 7.232195155650402718e-01 3.007020184310174482e+00
2.897246558310587083e+00 4.317566749633535927e+00 7.272692871351822408e-01 3.057761419577271766e+00
2.914699850830530181e+00 4.331050268874598430e+00 7.313341685779013446e-01 3.107061233325855376e+00
2.932153143350473723e+00 4.344444587716592920e+00 7.354174811280433932e-01 3.159477474218323145e+00
2.949606435870416821e+00 4.357749706159520287e+00 7.395194425983292463e-01 3.213007592493305253e+00
2.967059728390359918e+00 4.370970242725361388e+00 7.436415145885660882e-01 3.267528926636546149e+00
2.984513020910303460e+00 4.384111580849334722e+00 7.477858892449236183e-01 3.323425967438960793e+00
3.001966313430247002e+00 4.397173720531439400e+00 7.519525665674020587e-01 3.380300541289503968e+00
3.019419605950190100e+00 4.410160452693995481e+00 7.561450456484891669e-01 3.440055546357067229e+00
3.036872898470133197e+00 4.423076931713421978e+00 7.603636138986529236e-01 3.499706198336202778e+00
3.054326190990076739e+00 4.435923157589718890e+00 7.646103073455439159e-01 3.562089522112788842e+00
3.071779483510019837e+00 4.448704332837333020e+00 7.688870261224443059e-01 3.625699112374218380e+00
3.089232776029962935e+00 4.461423597386060536e+00 7.731945281710065343e-01 3.690129334240238368e+00
3.106686068549906476e+00 4.474080951235901438e+00 7.775361570589079951e-01 3.758544480148632516e+00
3.124139361069850018e+00 4.486682828502480902e+00 7.819119127861487994e-01 3.826176304714064891e+00
3.141592653589793116e+00 4.499229338883848683e+00 7.863250475787182392e-01 3.897765217505225532e+00
3.159045946109736214e+00 4.511722632278056366e+00 7.907758037335462786e-01 3.970082739260578197e+00
3.176499238629679756e+00 4.524164705796255959e+00 7.952654157959306858e-01 4.044058907364838085e+00
3.193952531149622853e+00 4.536558016436610608e+00 7.997943880654914128e-01 4.118888183269353576e+00
3.211405823669565951e+00 4.548909507360821003e+00 8.043633518255801640e-01 4.193145462537629875e+00
3.228859116189509493e+00 4.561219178568887145e+00 8.089732452190864231e-01 4.269410476237396779e+00
3.246312408709453035e+00 4.573495906800734367e+00 8.136240682460105234e-01 4.343704601196916038e+00
3.263765701229396576e+00 4.585740009162224240e+00 8.183169233371078155e-01 4.419987577466815587e+00
3.281218993749339674e+00 4.597957240803292933e+00 8.230518522428704742e-01 4.495284414305253939e+00
3.298672286269282772e+00 4.610150876460671121e+00 8.278291742905666828e-01 4.570685674188569081e+00
3.316125578789226314e+00 4.622323446696381843e+00 8.326496285940012676e-01 4.646835488274684955e+00
3.333578871309169411e+00 4.634481330553803957e+00 8.375132151531742286e-01 4.721496275564940781e+00
3.351032163829112509e+00 4.646624528032936574e+00 8.424201073335971790e-01 4.797240653816467137e+00
3.368485456349056051e+00 4.658761106227344406e+00 8.473707426572411050e-01 4.871104723502456046e+00
3.385938748868999149e+00 4.670891832043796654e+00 8.523651211241061176e-01 4.945493739370020236e+00
3.403392041388942246e+00 4.683021264515787152e+00 8.574032427341924389e-01 5.018831448171790832e+00
3.420845333908885344e+00 4.695153401158066231e+00 8.624848567802673172e-01 5.091024488499310330e+00
3.438298626428829330e+00 4.707289312479397303e+00 8.676097366049657644e-01 5.163272335197093277e+00
3.455751918948772872e+00 4.719434590841149912e+00 8.727778822082877808e-01 5.233838568172244798e+00
