# angles(rad), pulling distance(m),                                     elastic band force(n), cable force(n)
0.000000000000000000e+00 2.129218016998123879e-04 8.323132198068057541e-02 1.626759895733548567e-01
1.745329251994329547e-02 4.284340438928493683e-04 1.675857895611761739e-01 3.279769610449240758e-01
3.490658503988659095e-02 6.466927142454106806e-04 2.530142438945156558e-01 4.951605300561979228e-01
5.235987755982988295e-02 8.678549827820401449e-04 3.394670433267504284e-01 6.634919329768185214e-01
6.981317007977318190e-02 1.092049578559078351e-03 4.268940651150396337e-01 8.323589737466455807e-01
8.726646259971647390e-02 1.319296989009117625e-03 5.152448204429069811e-01 1.001601491844289926e+00
1.047197551196597659e-01 1.549529289949954898e-03 6.044686399146949052e-01 1.171273548144860621e+00
1.221730476396030718e-01 1.782659036370738475e-03 6.945146906021678612e-01 1.341276821025658927e+00
1.396263401595463638e-01 2.018591757271787947e-03 7.853320256563677271e-01 1.511485168959253000e+00
1.570796326794896558e-01 2.257236306921162668e-03 8.768696970197127349e-01 1.681718905212731485e+00
1.745329251994329478e-01 2.498506258138803900e-03 9.690767709949782427e-01 1.851779159814241460e+00
1.919862177193762398e-01 2.742316613395506981e-03 1.061902328245296623e+00 2.021482542466177978e+00
2.094395102393195318e-01 2.988581723761592462e-03 1.155295463794157707e+00 2.190660822572841226e+00
2.268928027592628516e-01 3.237215261491872310e-03 1.249205287025407785e+00 2.359147698959279893e+00
2.443460952792061436e-01 3.488130362028661266e-03 1.343580921683250162e+00 2.526777023916782827e+00
2.617993877991494078e-01 3.741239775476768240e-03 1.438370582725403191e+00 2.693354192800462954e+00
2.792526803190927276e-01 3.996455873980832470e-03 1.533519985929071794e+00 2.858626715111503014e+00
2.967059728390360474e-01 4.253690651725325692e-03 1.628979814682225635e+00 3.022572132652440402e+00
3.141592653589793116e-01 4.512855724934549534e-03 1.724700103339355639e+00 3.185012349355988093e+00
3.316125578789225758e-01 4.773862331872637255e-03 1.820627800367036864e+00 3.345674542162264231e+00
3.490658503988658956e-01 5.036621332843553740e-03 1.916718011431402191e+00 3.504691325297354165e+00
3.665191429188092154e-01 5.301043113989913937e-03 2.012918148975455512e+00 3.661631087213208957e+00
3.839724354387524796e-01 5.567037658773087670e-03 2.109176942881847872e+00 3.816372039179912079e+00
4.014257279586957439e-01 5.834516276911351149e-03 2.205443591680487536e+00 3.968740850451265345e+00
4.188790204786390636e-01 6.103392060664722396e-03 2.301667006816877414e+00 4.118523743771238088e+00
4.363323129985823834e-01 6.373579884834960387e-03 2.397795125995285659e+00 4.265468592912115220e+00
4.537856055185257032e-01 6.644994654343786174e-03 2.493780442261725572e+00 4.409603517205981760e+00
4.712388980384689674e-01 6.917542672659494560e-03 2.589570214334534715e+00 4.550653901843915605e+00
4.886921905584122872e-01 7.191125006313707838e-03 2.685112060822968605e+00 4.688544046188991565e+00
5.061454830783556069e-01 7.465665487465175665e-03 2.780353729283280728e+00 4.822704596716523184e+00
5.235987755982988157e-01 7.741089898769423078e-03 2.875247668407049151e+00 4.953148051030570542e+00
5.410520681182421354e-01 8.017299641707931884e-03 2.969742205139965119e+00 5.079915192444245164e+00
5.585053606381854552e-01 8.294201751977524698e-03 3.063784831137235543e+00 5.202675608543171570e+00
5.759586531581287749e-01 8.571712695913462701e-03 3.157326766728641765e+00 5.321275854305254960e+00
5.934119456780720947e-01 8.849751392412530740e-03 3.250315165858247646e+00 5.435243506488905751e+00
6.108652381980153034e-01 9.128209331885933642e-03 3.342700398163428233e+00 5.545113085928839780e+00
6.283185307179586232e-01 9.407003202535338046e-03 3.434431311818288979e+00 5.650115646088451626e+00
6.457718232379019430e-01 9.686058143658157413e-03 3.525458502361134894e+00 5.749989259356684812e+00
6.632251157578451517e-01 9.965290275431243697e-03 3.615728548734882697e+00 5.844456039078219867e+00
6.806784082777884715e-01 1.024458853145343400e-02 3.705193237094407621e+00 5.934228931277957919e+00
6.981317007977317912e-01 1.052389590957632758e-02 3.793798378672332827e+00 6.017564675868666058e+00
7.155849933176750000e-01 1.080309594038201051e-02 3.881523855350722307e+00 6.097931462732691266e+00
7.330382858376184307e-01 1.108211241714084777e-02 3.968411762864892278e+00 6.178971905805718201e+00
7.504915783575616395e-01 1.136087432747223680e-02 4.054503059364013673e+00 6.260852220185834760e+00
7.679448708775049592e-01 1.163926774176418134e-02 4.139838294397564233e+00 6.344871245460541154e+00
7.853981633974482790e-01 1.191720799837417931e-02 4.224456087778899693e+00 6.430593335851130021e+00
8.028514559173914877e-01 1.219461281058044702e-02 4.308393782718543008e+00 6.518211420658206023e+00
8.203047484373349185e-01 1.247139618594530867e-02 4.391687388342803366e+00 6.608046398513922171e+00
8.377580409572781273e-01 1.274746995201403617e-02 4.474371709713961920e+00 6.700390146594190632e+00
8.552113334772214470e-01 1.302274536432780107e-02 4.556480425270672541e+00 6.795498952006500559e+00
8.726646259971647668e-01 1.329713424095822945e-02 4.638046167552420940e+00 6.893604490078729441e+00
8.901179185171079755e-01 1.357054978905209569e-02 4.719100598421750448e+00 6.994920659904622084e+00
9.075712110370514063e-01 1.384290690392313110e-02 4.799674479129667048e+00 7.099656623645465459e+00
9.250245035569946150e-01 1.411412091819222968e-02 4.879797736734148295e+00 7.208058406786092220e+00
9.424777960769379348e-01 1.438409517340937839e-02 4.959499526547110904e+00 7.320716349868468420e+00
9.599310885968812546e-01 1.465273599050662123e-02 5.038808291271610784e+00 7.437843317749855743e+00
9.773843811168245743e-01 1.491996388555230993e-02 5.117751817015864901e+00 7.559341292761006414e+00
9.948376736367677831e-01 1.518570023861831424e-02 5.196357286527325314e+00 7.685476592570791965e+00
1.012290966156711214e+00 1.544983826591922460e-02 5.274651330078381939e+00 7.817385954869076059e+00
1.029744258676654312e+00 1.571229691474883977e-02 5.352660074068728235e+00 7.954668121004688786e+00
1.047197551196597631e+00 1.597300195325806332e-02 5.430409187427036599e+00 8.097455689954507818e+00
1.064650843716540951e+00 1.623184173376301248e-02 5.507923926153483585e+00 8.247288790541393411e+00
1.082104136236484271e+00 1.648874313439113379e-02 5.585229176207944235e+00 8.403370651591485441e+00
1.099557428756427591e+00 1.674361847476496176e-02 5.662349494973246244e+00 8.566583910636490273e+00
1.117010721276370910e+00 1.699636947084514488e-02 5.739309151761492700e+00 8.737755129975514734e+00
1.134464013796314230e+00 1.724692717471930370e-02 5.816132167049942403e+00 8.916365441577617901e+00
1.151917306316257550e+00 1.749518102910119569e-02 5.892842350570924204e+00 9.104410872048898540e+00
1.169370598836200648e+00 1.774105698058729350e-02 5.969463338588915313e+00 9.301157274132997088e+00
1.186823891356144189e+00 1.798446750322168011e-02 6.046018630539535366e+00 9.507697456758528176e+00
1.204277183876087287e+00 1.822531307617881319e-02 6.122531625505682307e+00 9.725178372403949112e+00
1.221730476396030607e+00 1.846352449107621987e-02 6.199025658235957081e+00 9.953101361686158555e+00
1.239183768915973927e+00 1.869899686698322724e-02 6.275524034634972992e+00 1.019370951376835066e+01
1.256637061435917246e+00 1.893164434240950447e-02 6.352050067136742584e+00 1.044707639745305805e+01
1.274090353955860566e+00 1.916139419710482378e-02 6.428627110133754208e+00 1.071350524415571570e+01
1.291543646475803886e+00 1.938814396367118456e-02 6.505278595931359042e+00 1.099536456985862287e+01
1.308996938995747206e+00 1.961180071140419118e-02 6.582028070870353353e+00 1.129335921212773641e+01
1.326450231515690303e+00 1.983228682268674617e-02 6.658899231608035763e+00 1.160792646283728047e+01
1.343903524035633845e+00 2.004952107458815233e-02 6.735915961966865595e+00 1.194052546552360816e+01
1.361356816555576943e+00 2.026341673969931159e-02 6.813102370518156370e+00 1.229288360751236553e+01
1.378810109075520263e+00 2.047387677845835530e-02 6.890482829321922686e+00 1.266722000661733993e+01
1.396263401595463582e+00 2.068098093967509626e-02 6.968082013629013360e+00 1.305423988745078567e+01
1.413716694115406902e+00 2.088489558679067909e-02 7.045924942492710841e+00 1.344865221394608312e+01
1.431169986635350000e+00 2.108577781128161133e-02 7.124037020725499936e+00 1.385073613422978767e+01
1.448623279155293542e+00 2.128377589521318267e-02 7.202444082392298164e+00 1.426080662262780763e+01
1.466076571675236861e+00 2.147903011900877471e-02 7.281172436078324317e+00 1.467918869188286912e+01
1.483529864195180181e+00 2.167167337111167158e-02 7.360248912275463518e+00 1.510622722475875435e+01
1.500983156715123279e+00 2.186183171850684254e-02 7.439700912707854386e+00 1.554228694743940409e+01
1.518436449235066599e+00 2.204962492569940632e-02 7.519556461943249559e+00 1.598775377054271907e+01
1.535889741755009918e+00 2.223516692753802967e-02 7.599844261638140530e+00 1.644303628677752016e+01
1.553343034274953460e+00 2.241856626160686553e-02 7.680593747690321216e+00 1.690856733069720974e+01
1.570796326794896558e+00 2.259992646403418196e-02 7.761835150595238098e+00 1.738480571567975019e+01
1.588249619314839878e+00 2.277934643257581437e-02 7.843599559327996573e+00 1.787223812148215174e+01
1.605702911834782975e+00 2.295692076027085540e-02 7.925918989116365054e+00 1.837138116195934856e+01
1.623156204354726295e+00 2.313274004262460409e-02 8.008826453478974372e+00 1.888278364264359510e+01
1.640609496874669837e+00 2.330689116092731286e-02 8.092356040892502378e+00 1.940702901844678863e+01
1.658062789394613157e+00 2.347945754402344307e-02 8.176542996610722369e+00 1.994473810117263213e+01
1.675516081914556255e+00 2.365051941058593857e-02 8.261423810161963033e+00 2.049657203529752536e+01
1.692969374434499574e+00 2.382015399372494971e-02 8.347036309097132900e+00 2.106323557086229670e+01
1.710422666954442894e+00 2.398843574964766925e-02 8.433419759623037137e+00 2.164548065757463746e+01
1.727875959474386436e+00 2.415543655241391904e-02 8.520614974826406396e+00 2.224411033026459350e+01
1.745329251994329534e+00 2.432122587543706499e-02 8.608664431273687967e+00 2.285998308241066823e+01
1.762782544514272853e+00 2.448587096073443284e-02 8.697612394860827933e+00 2.349401772897944696e+01
1.780235837034215951e+00 2.464943697719452348e-02 8.787505056886880439e+00 2.414719876496220508e+01
1.797689129554159271e+00 2.481198716883308356e-02 8.878390681439435994e+00 2.482058230661566967e+01
1.815142422074102813e+00 2.497358299443112536e-02 8.970319765414616953e+00 2.551530263690857936e+01
1.832595714594046132e+00 2.513428426052840420e-02 9.063345212586011002e+00 2.623257929900679386e+01
1.850049007113989230e+00 2.529414924566368572e-02 9.157522523141450321e+00 2.697372541743684593e+01
1.867502299633932550e+00 2.545323481724713968e-02 9.252910000423279158e+00 2.774015687504244809e+01
1.884955592153875870e+00 2.561159654226476817e-02 9.349568976754001781e+00 2.853340244702249606e+01
1.902408884673818967e+00 2.576928879448349766e-02 9.447564061028108640e+00 2.935511489370134441e+01
1.919862177193762509e+00 2.592636485649666214e-02 9.546963411396271582e+00 3.020708403683660137e+01
1.937315469713705829e+00 2.608287701522792393e-02 9.647839033759114002e+00 3.109125114867476825e+01
1.954768762233649149e+00 2.623887665335724109e-02 9.750267110680098881e+00 3.200972520157414891e+01
1.972222054753592246e+00 2.639441433982279289e-02 9.854328366912575632e+00 3.296480140892896316e+01
1.989675347273535566e+00 2.654953991640027905e-02 9.960108470583971751e+00 3.395898116357529517e+01
2.007128639793478886e+00 2.670430257909540278e-02 1.006769848178648452e+01 3.499499729378386093e+01
2.024581932313422428e+00 2.685875095771176127e-02 1.017719534806065163e+01 3.607583996853478681e+01
2.042035224833365525e+00 2.701293319650822922e-02 1.028870246002863453e+01 3.720478785919527098e+01
2.059488517353308623e+00 2.716689703008718856e-02 1.040233026949291428e+01 3.838544333336129455e+01
2.076941809873252165e+00 2.732068985646485607e-02 1.051819698344309550e+01 3.962177397531804957e+01
2.094395102393195263e+00 2.747435881155210410e-02 1.063642934401553752e+01 4.091815906117518153e+01
2.111848394913138804e+00 2.762795084340873702e-02 1.075716350658815479e+01 4.227944353379394471e+01
2.129301687433081902e+00 2.778151278242478248e-02 1.088054603241788776e+01 4.371100223428841502e+01
2.146754979953025444e+00 2.793509141178106975e-02 1.100673501406694754e+01 4.521881359821122004e+01
2.164208272472968542e+00 2.808873354129264033e-02 1.113590135542639992e+01 4.680954502494927993e+01
2.181661564992911639e+00 2.824248607814393297e-02 1.126823023223501963e+01 4.849065520443287625e+01
2.199114857512855181e+00 2.839639609681189267e-02 1.140392276249078840e+01 5.027051350770365445e+01
2.216568150032798723e+00 2.855051091267933605e-02 1.154319807143986765e+01 5.215859580441017584e+01
2.234021442552741821e+00 2.870487815664225784e-02 1.168627564770322458e+01 5.415799208089978833e+01
2.251474735072684918e+00 2.885954584784691454e-02 1.183296811706684615e+01 5.611408884020612220e+01
2.268928027592628460e+00 2.901456246877471071e-02 1.198298843344278275e+01 5.798383764124260864e+01
2.286381320112572002e+00 2.916997704536760175e-02 1.213605872683847231e+01 5.976498828841052102e+01
2.303834612632515100e+00 2.932583922621764816e-02 1.229190475941134331e+01 6.145315621372095904e+01
2.321287905152458197e+00 2.948219936315244968e-02 1.245024358996467306e+01 6.303898962947008044e+01
2.338741197672401295e+00 2.963910859663616143e-02 1.261080097487115026e+01 6.452001520712141769e+01
2.356194490192344837e+00 2.979661894557022669e-02 1.277329738839041795e+01 6.588821078979903234e+01
2.373647782712288379e+00 2.995478339771485282e-02 1.293745861931006580e+01 6.713990100556624441e+01
2.391101075232231477e+00 3.011365600393059797e-02 1.310300373883296388e+01 6.826659333291345888e+01
2.408554367752174574e+00 3.027329197869737740e-02 1.326965839506392086e+01 6.926541343085274605e+01
2.426007660272118116e+00 3.043374780603433707e-02 1.343714079418755780e+01 7.012785434232092996e+01
2.443460952792061214e+00 3.059508134859167255e-02 1.360518345647983551e+01 7.085480219307912364e+01
2.460914245312004311e+00 3.075735196268632871e-02 1.377350028630768541e+01 7.143350990438587189e+01
2.478367537831947853e+00 3.092062062049902305e-02 1.394180535200127125e+01 7.185936655238700155e+01
2.495820830351891395e+00 3.108495004092222055e-02 1.410983463507334079e+01 7.213758169082309735e+01
2.513274122871834493e+00 3.125040482682982235e-02 1.427729319693625776e+01 7.225100721442142060e+01
2.530727415391777591e+00 3.141705161066360441e-02 1.444390871536059606e+01 7.220599411879463503e+01
2.548180707911721132e+00 3.158495920977003046e-02 1.460942065119668598e+01 7.200488561243446384e+01
2.565634000431664674e+00 3.175419879243730065e-02 1.477356619034582685e+01 7.164443888512491299e+01
2.583087292951607772e+00 3.192484405593772057e-02 1.493604589414173134e+01 7.110670003320043975e+01
2.600540585471550870e+00 3.209697141738795945e-02 1.509658136665851025e+01 7.039952284939693072e+01
2.617993877991494411e+00 3.227066021809296692e-02 1.525489153549430199e+01 6.952101818750814743e+01
2.635447170511437509e+00 3.244599294343364360e-02 1.541069301463021191e+01 6.847006916488547290e+01
2.652900463031380607e+00 3.262305545988185979e-02 1.556370179655421992e+01 6.724695610026802228e+01
2.670353755551324149e+00 3.280193727112334923e-02 1.571363693537093020e+01 6.585427324524485471e+01
2.687807048071267690e+00 3.298273179456107790e-02 1.586022906090627593e+01 6.429909062805489839e+01
2.705260340591210788e+00 3.316553666287969798e-02 1.600320843235249058e+01 6.258390993155630611e+01
2.722713633111153886e+00 3.335045404454880374e-02 1.614229499078140861e+01 6.070755045163085128e+01
2.740166925631096984e+00 3.353759101803276133e-02 1.627724129448557377e+01 5.868839028167588623e+01
2.757620218151040525e+00 3.372705988071082045e-02 1.640777134035337426e+01 5.651871012926900306e+01
2.775073510670984067e+00 3.391897886927624367e-02 1.653380280626522136e+01 5.428799464677879882e+01
2.792526803190927165e+00 3.411347153070757449e-02 1.665545153074856444e+01 5.208716924070329668e+01
2.809980095710870263e+00 3.431066245398235737e-02 1.677273797274999012e+01 4.988096629338102161e+01
2.827433388230813804e+00 3.451058365337706518e-02 1.688580845951006637e+01 4.775097857643043398e+01
2.844886680750756902e+00 3.471320834711984216e-02 1.699467121515088053e+01 4.565304222099324249e+01
2.862339973270700000e+00 3.491852736765325288e-02 1.709947001854032678e+01 4.363950285466112433e+01
2.879793265790643542e+00 3.512652943036215919e-02 1.720022935709146594e+01 4.166025351810676369e+01
2.897246558310587083e+00 3.533720314670441009e-02 1.729707272912877514e+01 3.975595244026713004e+01
2.914699850830530625e+00 3.555053626374558157e-02 1.739004770610497630e+01 3.789470916459099925e+01
2.932153143350473723e+00 3.576651599186236874e-02 1.747927044315320089e+01 3.610404467452975297e+01
2.949606435870416821e+00 3.598512904091762804e-02 1.756498321022395359e+01 3.443397640273028770e+01
2.967059728390360362e+00 3.620636175894084013e-02 1.764747292094781983e+01 3.290053454262366728e+01
2.984513020910303460e+00 3.643020027294573138e-02 1.772699593362781556e+01 3.148931113743292443e+01
3.001966313430246558e+00 3.665663065542141413e-02 1.780378105778459030e+01 3.018732565910993060e+01
3.019419605950190100e+00 3.688563911516184318e-02 1.787803234092317339e+01 2.898292147834388288e+01
3.036872898470133197e+00 3.711721219262062443e-02 1.794993288953708444e+01 2.786614999686775462e+01
3.054326190990076295e+00 3.735133703605991728e-02 1.801964755943387786e+01 2.682828876270639640e+01
3.071779483510019837e+00 3.758800146922312846e-02 1.808732534896482491e+01 2.586172712527499229e+01
3.089232776029963379e+00 3.782719480574221055e-02 1.815310137399549717e+01 2.495970138083348999e+01
3.106686068549906921e+00 3.806890670091077344e-02 1.821709854610660528e+01 2.411637189405171711e+01
3.124139361069850018e+00 3.831312090730803338e-02 1.827942902858551832e+01 2.332717755447534813e+01
3.141592653589793116e+00 3.855981277225941500e-02 1.834019548433863278e+01 2.258827378888446091e+01
3.159045946109736214e+00 3.880897254028447402e-02 1.839949209681237008e+01 2.189413566295662861e+01
3.176499238629679756e+00 3.906059669777944832e-02 1.845740550730195650e+01 2.124063349796896816e+01
3.193952531149622853e+00 3.931467259752784854e-02 1.851401564976903558e+01 2.062535377438326734e+01
3.211405823669565951e+00 3.957117593159226870e-02 1.856939636047534847e+01 2.004625732412606354e+01
3.228859116189509493e+00 3.983009320104812651e-02 1.862361609620147362e+01 1.949981059824650487e+01
3.246312408709452590e+00 4.009141962914548885e-02 1.867673835821360839e+01 1.898297458509304647e+01
3.263765701229396576e+00 4.035514553098093482e-02 1.872882226884004098e+01 1.849401781166900705e+01
3.281218993749339674e+00 4.062125681818863632e-02 1.877992288242459296e+01 1.803128293489919542e+01
3.298672286269282772e+00 4.088973635132112788e-02 1.883009166858191108e+01 1.759320033116979687e+01
3.316125578789226314e+00 4.116056646577582329e-02 1.887937671113107996e+01 1.717812818532710040e+01
3.333578871309169411e+00 4.143373016428002903e-02 1.892782314265345889e+01 1.678454151795202876e+01
3.351032163829112509e+00 4.170921337424976505e-02 1.897547326873506179e+01 1.641086754094187228e+01
3.368485456349056051e+00 4.198700537526584703e-02 1.902236690763701787e+01 1.605568197724290513e+01
3.385938748868999149e+00 4.226709620959145236e-02 1.906854156268641276e+01 1.571781759785434751e+01
3.403392041388942246e+00 4.254947473677417324e-02 1.911403256373215598e+01 1.539629241678247062e+01
3.420845333908885788e+00 4.283412861875604549e-02 1.915887335159162319e+01 1.509023817985108273e+01
3.438298626428828886e+00 4.312104486927389319e-02 1.920309552041834777e+01 1.479878763518850526e+01
