# angles(rad), pulling distance(m),                                     elastic band force(n), cable force(n)
0.000000000000000000e+00 2.346469924369794962e-04 7.660293009771731998e-02 1.250390818695827078e-01
1.745329251994329547e-02 4.718486085324025006e-04 1.534497678638502283e-01 2.485676449088829176e-01
3.490658503988659095e-02 7.115313920997083348e-04 2.305186646347020529e-01 3.706110823662394638e-01
5.235987755982988295e-02 9.536226750183109937e-04 3.077875752968945999e-01 4.911868443141104712e-01
6.981317007977318190e-02 1.198057902754618006e-03 3.852342582873677923e-01 6.102867363872269690e-01
8.726646259971647390e-02 1.444767036350047334e-03 4.628362755933801975e-01 7.279225569197419476e-01
1.047197551196597659e-01 1.693654808456822704e-03 5.405709927525086389e-01 8.441783393042302519e-01
1.221730476396030718e-01 1.944645645614292116e-03 6.184155788526481956e-01 9.590052234349065730e-01
1.396263401595463638e-01 2.197678360499116888e-03 6.963469126929855424e-01 1.072336510843402202e+00
1.570796326794896558e-01 2.452681856196575402e-03 7.743412074278903656e-01 1.184183695057379859e+00
1.745329251994329478e-01 2.709580739049735967e-03 8.523745877768980073e-01 1.294549623359814383e+00
1.919862177193762398e-01 2.968301095623876017e-03 9.304263570335482569e-01 1.403473315573398272e+00
2.094395102393195318e-01 3.228769989939424094e-03 1.008474985343807528e+00 1.510930690939605636e+00
2.268928027592628516e-01 3.490914097683479704e-03 1.086502252145062908e+00 1.616988492281114187e+00
2.443460952792061436e-01 3.754659538114548181e-03 1.164474836457438656e+00 1.721302029277127943e+00
2.617993877991494078e-01 4.019931874062537651e-03 1.242380426058315557e+00 1.824321018148658213e+00
2.792526803190927276e-01 4.286656111928761198e-03 1.320192578462302091e+00 1.925715993037044882e+00
2.967059728390360474e-01 4.554756686123324037e-03 1.397887906200220076e+00 2.025533875475386658e+00
3.141592653589793116e-01 4.824157638447011329e-03 1.475443360411778704e+00 2.123761608731747241e+00
3.316125578789225758e-01 5.094783569057983325e-03 1.552834559467784814e+00 2.220329149935944990e+00
3.490658503988658956e-01 5.366559878104103232e-03 1.630043628139246303e+00 2.315399581078352309e+00
3.665191429188092154e-01 5.639412765722937211e-03 1.707042967826110536e+00 2.408645598124188769e+00
3.839724354387524796e-01 5.913269232041751776e-03 1.783811836240192461e+00 2.500237039726914023e+00
4.014257279586957439e-01 6.188057077177518996e-03 1.860327858627526476e+00 2.590087054400008082e+00
4.188790204786390636e-01 6.463704901236911292e-03 1.936568613525827764e+00 2.678153791189604949e+00
4.363323129985823834e-01 6.740142071865425251e-03 2.012512969877572111e+00 2.764443757679036828e+00
4.537856055185257032e-01 7.017297157288620961e-03 2.088134426312523217e+00 2.848725765009872291e+00
4.712388980384689674e-01 7.295095694011559731e-03 2.163414498343082748e+00 2.931296924534443793e+00
4.886921905584122872e-01 7.573460016053082215e-03 2.238326778195764977e+00 3.011847222018303238e+00
5.061454830783556069e-01 7.852310571585103399e-03 2.312849632032754066e+00 3.090547098714991670e+00
5.235987755982988157e-01 8.131572377146815619e-03 2.386960908162875761e+00 3.167291685679007873e+00
5.410520681182421354e-01 8.411176941092383952e-03 2.460638465018481380e+00 3.241968368634769782e+00
5.585053606381854552e-01 8.691057626965604729e-03 2.533859962934386534e+00 3.314502060339331813e+00
5.759586531581287749e-01 8.971141377157067914e-03 2.606600124542786556e+00 3.384782483419801480e+00
5.934119456780720947e-01 9.251349449542886280e-03 2.678839428445344506e+00 3.453103508580644299e+00
6.108652381980153034e-01 9.531603551635724550e-03 2.750552204356716324e+00 3.519123045667719385e+00
6.283185307179586232e-01 9.811827002319363847e-03 2.821717863183923480e+00 3.583022945939831061e+00
6.457718232379019430e-01 1.009194347468000096e-02 2.892314168404049202e+00 3.644674875854241769e+00
6.632251157578451517e-01 1.037187931203751787e-02 2.962317366163523591e+00 3.703914624997211913e+00
6.806784082777884715e-01 1.065156960706701433e-02 3.031704747035414815e+00 3.760624800218439034e+00
6.981317007977317912e-01 1.093094531345327816e-02 3.100453841538449051e+00 3.814816200581126360e+00
7.155849933176750000e-01 1.120992211745365681e-02 3.168592175648098586e+00 3.869543797649183325e+00
7.330382858376184307e-01 1.148842889601591269e-02 3.236150370355348027e+00 3.925011770827173230e+00
7.504915783575616395e-01 1.176639921195991000e-02 3.303158749391909232e+00 3.981348021739452570e+00
7.679448708775049592e-01 1.204374583068120244e-02 3.369646137623588444e+00 4.038970656799259373e+00
7.853981633974482790e-01 1.232040291550070069e-02 3.435640572548281924e+00 4.097729113599291928e+00
8.028514559173914877e-01 1.259630641344248146e-02 3.501169110408631546e+00 4.157730770330949177e+00
8.203047484373349185e-01 1.287136623041485427e-02 3.566257972089194261e+00 4.219512584890455997e+00
8.377580409572781273e-01 1.314550742886252260e-02 3.630932588586401000e+00 4.282996755390334087e+00
8.552113334772214470e-01 1.341866227020898326e-02 3.695217656883126978e+00 4.348217265215917671e+00
8.726646259971647668e-01 1.369076656549382889e-02 3.759137195921708141e+00 4.415261370544820707e+00
8.901179185171079755e-01 1.396174897096681689e-02 3.822714595428714723e+00 4.484391756184769484e+00
9.075712110370514063e-01 1.423151434090247705e-02 3.885972664906563345e+00 4.556165398181136972e+00
9.250245035569946150e-01 1.449999095480363452e-02 3.948933679151854559e+00 4.630363628586387392e+00
9.424777960769379348e-01 1.476711108294938637e-02 4.011619420609765285e+00 4.707083280722780039e+00
9.599310885968812546e-01 1.503280383839230260e-02 4.074051219948922054e+00 4.786550311416802650e+00
9.773843811168245743e-01 1.529699825217064116e-02 4.136249996274127483e+00 4.868946407005406485e+00
9.948376736367677831e-01 1.555962391021959053e-02 4.198236294402300395e+00 4.954449776358815782e+00
1.012290966156711214e+00 1.582060806485495463e-02 4.260030319908851837e+00 5.043302774739798267e+00
1.029744258676654312e+00 1.607986266059544672e-02 4.321651974080390701e+00 5.136019722926989495e+00
1.047197551196597631e+00 1.633731314588727362e-02 4.383120888183519526e+00 5.232572800823816372e+00
1.064650843716540951e+00 1.659288803930803954e-02 4.444456454889397889e+00 5.333138394612163324e+00
1.082104136236484271e+00 1.684651521363038015e-02 4.505677859276955743e+00 5.437980512141143308e+00
1.099557428756427591e+00 1.709812267373284414e-02 4.566804110802221928e+00 5.547363671765409343e+00
1.117010721276370910e+00 1.734763825948486618e-02 4.627854072653934558e+00 5.661576485077818077e+00
1.134464013796314230e+00 1.759499008037992626e-02 4.688846490302191583e+00 5.780917285957746010e+00
1.151917306316257550e+00 1.784010583241154788e-02 4.749800021709756237e+00 5.905721733574830878e+00
1.169370598836200648e+00 1.808291467686956935e-02 4.810733265855223983e+00 6.036303686988706119e+00
1.186823891356144189e+00 1.832334421824112838e-02 4.871664790070981077e+00 6.173075892294950684e+00
1.204277183876087287e+00 1.856130423452915720e-02 4.932613159252144719e+00 6.316916861656102888e+00
1.221730476396030607e+00 1.879672064394263820e-02 4.993596964531088034e+00 6.467869968903060318e+00
1.239183768915973927e+00 1.902952240212794563e-02 5.054634850519949651e+00 6.626329374106061820e+00
1.256637061435917246e+00 1.925963821877209325e-02 5.115745544345315032e+00 6.792813379977620691e+00
1.274090353955860566e+00 1.948699763440880917e-02 5.176947885396495863e+00 6.967851522641199224e+00
1.291543646475803886e+00 1.971153198191382197e-02 5.238260853583687648e+00 7.151986425257771174e+00
1.308996938995747206e+00 1.993317167107629476e-02 5.299703599056917014e+00 7.345894152597191251e+00
1.326450231515690303e+00 2.015183625245809199e-02 5.361295473934958089e+00 7.550656762245431253e+00
1.343903524035633845e+00 2.036743610552009531e-02 5.423056062793050636e+00 7.767424956273609737e+00
1.361356816555576943e+00 2.057990281512251177e-02 5.485005214138310770e+00 7.996344904480372939e+00
1.378810109075520263e+00 2.078916771203877245e-02 5.547163074819857265e+00 8.238357093412686183e+00
1.396263401595463582e+00 2.099518082882149972e-02 5.609550124219388145e+00 8.493713559945492264e+00
1.413716694115406902e+00 2.119797386707295353e-02 5.672187209031664956e+00 8.759898129310720094e+00
1.431169986635350000e+00 2.139769213775584433e-02 5.735095580772171964e+00 9.032361524284493015e+00
1.448623279155293542e+00 2.159449261527749547e-02 5.798296935375896410e+00 9.310450495986916764e+00
1.466076571675236861e+00 2.178851446575430506e-02 5.861813453164865351e+00 9.594846599972687073e+00
1.483529864195180181e+00 2.197989308627976493e-02 5.925667840929301100e+00 9.885636416414879335e+00
1.500983156715123279e+00 2.216875657224513449e-02 5.989883377508687268e+00 1.018311118130049664e+01
1.518436449235066599e+00 2.235522601897250300e-02 6.054483961483033028e+00 1.048759478937487266e+01
1.535889741755009918e+00 2.253941678817848737e-02 6.119494160753453649e+00 1.079938849649553134e+01
1.553343034274953460e+00 2.272143871626158482e-02 6.184939265243452944e+00 1.111882509818739173e+01
1.570796326794896558e+00 2.290139644239675559e-02 6.250845343534232157e+00 1.144626328199667498e+01
1.588249619314839878e+00 2.307938986532538997e-02 6.317239303373564319e+00 1.178207952020241756e+01
1.605702911834782975e+00 2.325551448781658023e-02 6.384148955432783268e+00 1.212667426224290601e+01
1.623156204354726295e+00 2.342986168632654742e-02 6.451603081498650027e+00 1.248047721172481062e+01
1.640609496874669837e+00 2.360251905874558020e-02 6.519631507613045329e+00 1.284394243045491812e+01
1.658062789394613157e+00 2.377357063696310113e-02 6.588265182665995923e+00 1.321755859904289565e+01
1.675516081914556255e+00 2.394309719209710904e-02 6.657536263098474905e+00 1.360184336898399593e+01
1.692969374434499574e+00 2.411117641065318659e-02 6.727478203876061436e+00 1.399735452604480557e+01
1.710422666954442894e+00 2.427788315867273131e-02 6.798125856521000543e+00 1.440468486889832178e+01
1.727875959474386436e+00 2.444328963428037821e-02 6.869515575112865591e+00 1.482447352705297483e+01
1.745329251994329534e+00 2.460746559757392288e-02 6.941685331092542377e+00 1.525740206978137614e+01
1.762782544514272853e+00 2.477047849903764309e-02 7.014674837808961172e+00 1.570420658703800854e+01
1.780235837034215951e+00 2.493239368767535130e-02 7.088525685870532556e+00 1.616567407332941997e+01
1.797689129554159271e+00 2.509327451347553167e-02 7.163281490504121329e+00 1.664265672979084343e+01
1.815142422074102813e+00 2.525318252222693780e-02 7.238988052284760499e+00 1.713606780826078690e+01
1.832595714594046132e+00 2.541217753440520172e-02 7.315693532780455755e+00 1.764689910404267792e+01
1.850049007113989230e+00 2.557031782722917965e-02 7.393448646859093643e+00 1.817621659556963820e+01
1.867502299633932550e+00 2.572766020116801569e-02 7.472306873629364077e+00 1.872518048338240604e+01
1.884955592153875870e+00 2.588426013897779029e-02 7.552324688234997474e+00 1.929504331856192678e+01
1.902408884673818967e+00 2.604017187862091645e-02 7.633561817108751590e+00 1.988716970645303306e+01
1.919862177193762509e+00 2.619544853465307493e-02 7.716081520325758447e+00 2.050304190359566903e+01
1.937315469713705829e+00 2.635014219439957978e-02 7.799950903735259899e+00 2.114427553115831060e+01
1.954768762233649149e+00 2.650430399427711886e-02 7.885241264242222492e+00 2.181263680904843127e+01
1.972222054753592246e+00 2.665798424243653875e-02 7.972028473475694099e+00 2.251005289973965517e+01
1.989675347273535566e+00 2.681123246112541644e-02 8.060393407580471958e+00 2.323864311158624929e+01
2.007128639793478886e+00 2.696409751639918667e-02 8.150422423619312795e+00 2.400072762820850514e+01
2.024581932313422428e+00 2.711662765977690057e-02 8.242207895756061831e+00 2.479886684718529111e+01
2.042035224833365525e+00 2.726887062972212922e-02 8.335848815592692418e+00 2.563588161055990255e+01
2.059488517353308623e+00 2.742087372509615165e-02 8.431451469506926699e+00 2.651489217540345678e+01
2.076941809873252165e+00 2.757268386139129571e-02 8.529130201276661438e+00 2.743936081909316371e+01
2.094395102393195263e+00 2.772434767875557246e-02 8.629008278568459644e+00 2.841313013137431653e+01
2.111848394913138804e+00 2.787591157182894158e-02 8.731218875843280713e+00 2.944049133803698126e+01
2.129301687433081902e+00 2.802742179993633273e-02 8.835906195347124736e+00 3.052623398872618665e+01
2.146754979953025444e+00 2.817892453300868683e-02 8.943226750184022578e+00 3.167573407416947262e+01
2.164208272472968542e+00 2.833046592594354318e-02 9.053350838138207735e+00 3.289503892866442669e+01
2.181661564992911639e+00 2.848209220632647032e-02 9.166464241218033493e+00 3.419097144357762375e+01
2.199114857512855181e+00 2.863384971039116891e-02 9.282770193543189663e+00 3.557126990950376211e+01
2.216568150032798723e+00 2.878578499674259994e-02 9.402491672231807485e+00 3.704472586286730973e+01
2.234021442552741821e+00 2.893794487973089594e-02 9.525874072672326776e+00 3.862138910394821067e+01
2.251474735072684918e+00 2.909037652650318939e-02 9.653188353741843031e+00 4.031278154204954234e+01
2.268928027592628460e+00 2.924312752692104916e-02 9.784734754445203464e+00 4.213218359497697207e+01
2.286381320112572002e+00 2.939624595193392198e-02 9.920833329459192385e+00 4.409042474728821048e+01
2.303834612632515100e+00 2.954978046593937160e-02 1.006153700493383418e+01 4.610348515735302044e+01
2.321287905152458197e+00 2.970378036228356680e-02 1.020652647901204801e+01 4.804675007864381797e+01
2.338741197672401295e+00 2.985829568990608709e-02 1.035548174324743442e+01 4.991425585681898269e+01
2.356194490192344837e+00 3.001337730393151965e-02 1.050808791231361816e+01 5.170177814392258142e+01
2.373647782712288379e+00 3.016907697243421255e-02 1.066401673725742683e+01 5.339855938719900053e+01
2.391101075232231477e+00 3.032544746915622619e-02 1.082295319434652647e+01 5.500276177444740000e+01
2.408554367752174574e+00 3.048254265016368814e-02 1.098457723782615503e+01 5.650624601296487270e+01
2.426007660272118116e+00 3.064041758995609752e-02 1.114856890717901727e+01 5.790255338775414629e+01
2.443460952792061214e+00 3.079912864028341163e-02 1.131460714455825212e+01 5.918483379218265839e+01
2.460914245312004311e+00 3.095873359417091950e-02 1.148238062593444475e+01 6.035022488892641235e+01
2.478367537831947853e+00 3.111929174994260486e-02 1.165155979272814868e+01 6.138589373136002791e+01
2.495820830351891395e+00 3.128086408482483316e-02 1.182182801370965741e+01 6.229041704790982692e+01
2.513274122871834493e+00 3.144351334284994914e-02 1.199287195028826503e+01 6.305924952155915975e+01
2.530727415391777591e+00 3.160730421088752545e-02 1.216434908067919984e+01 6.367594538145758776e+01
2.548180707911721132e+00 3.177230343733462858e-02 1.233595748322306918e+01 6.415042067556919392e+01
2.565634000431664674e+00 3.193858001500705229e-02 1.250737251019210206e+01 6.446944080031498459e+01
2.583087292951607772e+00 3.210620532942449340e-02 1.267827135945655748e+01 6.462931907163688550e+01
2.600540585471550870e+00 3.227525335983297966e-02 1.284833121916595999e+01 6.462617160790036053e+01
2.617993877991494411e+00 3.244580085219383320e-02 1.301727145035440891e+01 6.447297517610482487e+01
2.635447170511437509e+00 3.261792755408544214e-02 1.318475376205698524e+01 6.414498782092272222e+01
2.652900463031380607e+00 3.279171640734412918e-02 1.335044849806948619e+01 6.364329466641374466e+01
2.670353755551324149e+00 3.296725383014996458e-02 1.351400928838374327e+01 6.295985221245904739e+01
2.687807048071267690e+00 3.314462992990650086e-02 1.367511590085734596e+01 6.210395879137597319e+01
2.705260340591210788e+00 3.332393884926429517e-02 1.383348614997296799e+01 6.109045371404906888e+01
2.722713633111153886e+00 3.350527901203665532e-02 1.398881839039108144e+01 5.991266546146358252e+01
2.740166925631096984e+00 3.368875347697520423e-02 1.414074767881915662e+01 5.854748597859378378e+01
2.757620218151040525e+00 3.387447035163908271e-02 1.428898503464668934e+01 5.702662622415998328e+01
2.775073510670984067e+00 3.406254319352054749e-02 1.443317677057054915e+01 5.532815882997524426e+01
2.792526803190927165e+00 3.425309109618221437e-02 1.457298464756049405e+01 5.346209579121208577e+01
2.809980095710870263e+00 3.444623977736140097e-02 1.470816436299693031e+01 5.146929973955578674e+01
2.827433388230813804e+00 3.464212284331335406e-02 1.483839330618389418e+01 4.932504679426438798e+01
2.844886680750756902e+00 3.484087566008418207e-02 1.496346697449047802e+01 4.708199198107251249e+01
2.862339973270700000e+00 3.504257889940046167e-02 1.508348187579173505e+01 4.487390967886044280e+01
2.879793265790643542e+00 3.524720154606408862e-02 1.519854130894745303e+01 4.273074306080997786e+01
2.897246558310587083e+00 3.545473125278467835e-02 1.530875189195356256e+01 4.064927613904596626e+01
2.914699850830530625e+00 3.566515658260419747e-02 1.541422672721911802e+01 3.863159026990304312e+01
2.932153143350473723e+00 3.587842678353102277e-02 1.551513207500934755e+01 3.670366959932879070e+01
2.949606435870416821e+00 3.609453150960212353e-02 1.561185852169110433e+01 3.493860658106707717e+01
2.967059728390360362e+00 3.631346146311029144e-02 1.570476539317591147e+01 3.332300118604911887e+01
2.984513020910303460e+00 3.653516878843713483e-02 1.579416911879594210e+01 3.184508135244274740e+01
3.001966313430246558e+00 3.675962677671822110e-02 1.588034959031594440e+01 3.048623989898055342e+01
3.019419605950190100e+00 3.698682678507094618e-02 1.596355559181210992e+01 2.923115276462265300e+01
3.036872898470133197e+00 3.721675228577599887e-02 1.604400928616396982e+01 2.806995777608944920e+01
3.054326190990076295e+00 3.744937553987904427e-02 1.612190989662382989e+01 2.699443414564032651e+01
3.071779483510019837e+00 3.768466091668617318e-02 1.619743677539292648e+01 2.599697992935751856e+01
3.089232776029963379e+00 3.792258137897156628e-02 1.627075197888854063e+01 2.506916557113913058e+01
3.106686068549906921e+00 3.816311825477040898e-02 1.634200243982794731e+01 2.420367360812394253e+01
3.124139361069850018e+00 3.840625083873511897e-02 1.641132180815987240e+01 2.339510489878928468e+01
3.141592653589793116e+00 3.865195593702473731e-02 1.647883201607296044e+01 2.263871167741593027e+01
3.159045946109736214e+00 3.890021002340951495e-02 1.654464462767872135e+01 2.193007750432574809e+01
3.176499238629679756e+00 3.915098905500140336e-02 1.660886201021389041e+01 2.126528758033216704e+01
3.193952531149622853e+00 3.940426736003268399e-02 1.667157832663433581e+01 2.064093056514150959e+01
3.211405823669565951e+00 3.966001797857153510e-02 1.673288038085629381e+01 2.005390927805259693e+01
3.228859116189509493e+00 3.991821556748250538e-02 1.679284841972673448e+01 1.950123142177807622e+01
3.246312408709452590e+00 4.017883739854503922e-02 1.685155677675331276e+01 1.898012932511987927e+01
3.263765701229396576e+00 4.044186187790966419e-02 1.690907442724664378e+01 1.848820755051987064e+01
3.281218993749339674e+00 4.070726622615618989e-02 1.696546556732401001e+01 1.802347911037329453e+01
3.298672286269282772e+00 4.097502628882362941e-02 1.702078998227226236e+01 1.758412435270136953e+01
3.316125578789226314e+00 4.124511726991685057e-02 1.707510353918763357e+01 1.716846679140711984e+01
3.333578871309169411e+00 4.151751484785204394e-02 1.712845845429941249e+01 1.677488202634063086e+01
3.351032163829112509e+00 4.179219526904000281e-02 1.718090370210133955e+01 1.640191077727331148e+01
3.368485456349056051e+00 4.206913533201819821e-02 1.723248520503348047e+01 1.604819246035843960e+01
3.385938748868999149e+00 4.234831201267015566e-02 1.728324619124053640e+01 1.571253407480022624e+01
3.403392041388942246e+00 4.262970208390794852e-02 1.733322731637731806e+01 1.539383034577758202e+01
3.420845333908885788e+00 4.291328209869677696e-02 1.738246697257593709e+01 1.509109692110775924e+01
3.438298626428828886e+00 4.319902839005497486e-02 1.743100139681668637e+01 1.480340501906390749e+01
