# angles(rad), pulling distance(m),                                     elastic band force(n), cable force(n)
0.000000000000000000e+00 2.409060584982724565e-04 8.224365478334784429e-02 1.403870619586555513e-01
1.745329251994329547e-02 4.845262430425297212e-04 1.651699576141614778e-01 2.811124609663933072e-01
3.490658503988659095e-02 7.307780528198595587e-04 2.487483481046438294e-01 4.221286046699807559e-01
5.235987755982988295e-02 9.795781273410810851e-04 3.329458158817658053e-01 5.633678900253193955e-01
6.981317007977318190e-02 1.230843311488860874e-03 4.177321338127609751e-01 7.047926203458996230e-01
8.726646259971647390e-02 1.484493247351322074e-03 5.030689935005377977e-01 8.462515073314460512e-01
1.047197551196597659e-01 1.740450599980185482e-03 5.889259725513755761e-01 9.877310491086831457e-01
1.221730476396030718e-01 1.998638826220601981e-03 6.752622260593691417e-01 1.129013735102449179e+00
1.396263401595463638e-01 2.258980543645252356e-03 7.620582151232223600e-01 1.270322658238559832e+00
1.570796326794896558e-01 2.521397497603242773e-03 8.492719023765471498e-01 1.411268078714946750e+00
1.745329251994329478e-01 2.785810838562256635e-03 9.368700588087227610e-01 1.551890113987653308e+00
1.919862177193762398e-01 3.052141563499441955e-03 1.024821301624188719e+00 1.692149998143644973e+00
2.094395102393195318e-01 3.320310555248456082e-03 1.113092409111004155e+00 1.831939983936582639e+00
2.268928027592628516e-01 3.590238582499464398e-03 1.201648758367056757e+00 1.971148165175531153e+00
2.443460952792061436e-01 3.861846299799140316e-03 1.290455998927399150e+00 2.109694037206566897e+00
2.617993877991494078e-01 4.135054247550665717e-03 1.379480175836663713e+00 2.247502099173845025e+00
2.792526803190927276e-01 4.409782852013732247e-03 1.468687650893217178e+00 2.384497188397763257e+00
2.967059728390360474e-01 4.685952425304539155e-03 1.558045102649161073e+00 2.520606061605395354e+00
3.141592653589793116e-01 4.963482548971285928e-03 1.647519526410330615e+00 2.655763243161454401e+00
3.316125578789225758e-01 5.242290778216021283e-03 1.737078234236297369e+00 2.789919122406105512e+00
3.490658503988658956e-01 5.522296705149664676e-03 1.826688854940365703e+00 2.922986736691504550e+00
3.665191429188092154e-01 5.803423128711888632e-03 1.916319275442599723e+00 3.054862298215079708e+00
3.839724354387524796e-01 6.085596050018401287e-03 2.005936884466140047e+00 3.185409617011250472e+00
4.014257279586957439e-01 6.368740601819828685e-03 2.095508046705761629e+00 3.314510027329583330e+00
4.188790204786390636e-01 6.652769524328258112e-03 2.184998092192780739e+00 3.442177242593646547e+00
4.363323129985823834e-01 6.937590702020972160e-03 2.274371712994992301e+00 3.568358867959460667e+00
4.537856055185257032e-01 7.223140593629643995e-03 2.363594528308135434e+00 3.692639434852243330e+00
4.712388980384689674e-01 7.509352511759995012e-03 2.452633468245806636e+00 3.815003328561637375e+00
4.886921905584122872e-01 7.796126397537416625e-03 2.541456172144351822e+00 3.935836215308563535e+00
5.061454830783556069e-01 8.083384398681515634e-03 2.630029563578185403e+00 4.054728451245283694e+00
5.235987755982988157e-01 8.371052197762844649e-03 2.718319770557736437e+00 4.171496009382952508e+00
5.410520681182421354e-01 8.659052891685644140e-03 2.806293206275368490e+00 4.286087849727056032e+00
5.585053606381854552e-01 8.947309715964217244e-03 2.893917060447558143e+00 4.398441686952226704e+00
5.759586531581287749e-01 9.235750576034497047e-03 2.981158415812097839e+00 4.508381730114118469e+00
5.934119456780720947e-01 9.524278489984090365e-03 3.067983669147751780e+00 4.616164440677642311e+00
6.108652381980153034e-01 9.812812357066803826e-03 3.154360391395881980e+00 4.721513528947363092e+00
6.283185307179586232e-01 1.010129109375405322e-02 3.240258105821999912e+00 4.824112318242721464e+00
6.457718232379019430e-01 1.038962804322458681e-02 3.325642276820272247e+00 4.924051693071790581e+00
6.632251157578451517e-01 1.067773655848623833e-02 3.410473523981625288e+00 5.020933209617003179e+00
6.806784082777884715e-01 1.096555255882145433e-02 3.494717748900835641e+00 5.114548665200386424e+00
6.981317007977317912e-01 1.125298489928116229e-02 3.578345698451929735e+00 5.205567909788822334e+00
7.155849933176750000e-01 1.153995276785116722e-02 3.661327269685489494e+00 5.293670875989806568e+00
7.330382858376184307e-01 1.182639904724395140e-02 3.743625559275366221e+00 5.377866681431678231e+00
7.504915783575616395e-01 1.211221907264195367e-02 3.825204712201419444e+00 5.458976496758781494e+00
7.679448708775049592e-01 1.239733579488679245e-02 3.906058540796257361e+00 5.538429756984578844e+00
7.853981633974482790e-01 1.268167856063824941e-02 3.986209524695287332e+00 5.618194902684541248e+00
8.028514559173914877e-01 1.296517159326793060e-02 4.065697326137622802e+00 5.699846285231561893e+00
8.203047484373349185e-01 1.324773545087734768e-02 4.144557683951903826e+00 5.783494476320491628e+00
8.377580409572781273e-01 1.352928924009867001e-02 4.222823009881722101e+00 5.869226980151383444e+00
8.552113334772214470e-01 1.380975191668759247e-02 4.300525884055939940e+00 5.957356353365147683e+00
8.726646259971647668e-01 1.408904265925707035e-02 4.377697824882666566e+00 6.048095872978953125e+00
8.901179185171079755e-01 1.436708089730364540e-02 4.454369149882513312e+00 6.141644170229580091e+00
9.075712110370514063e-01 1.464378651837024321e-02 4.530569366632108519e+00 6.238224695358718819e+00
9.250245035569946150e-01 1.491908041582632946e-02 4.606327186214661751e+00 6.338050119093659340e+00
9.424777960769379348e-01 1.519288512255636756e-02 4.681670527672610049e+00 6.441319168187925825e+00
9.599310885968812546e-01 1.546512495353525099e-02 4.756626608709261461e+00 6.548235213442304747e+00
9.773843811168245743e-01 1.573572488721112356e-02 4.831221995946580527e+00 6.659034810569600893e+00
9.948376736367677831e-01 1.600460588059236453e-02 4.905482657871869101e+00 6.774082181407200309e+00
1.012290966156711214e+00 1.627167415473658799e-02 4.979434010022821155e+00 6.894040094570881294e+00
1.029744258676654312e+00 1.653685465315447509e-02 5.053100964405990325e+00 7.018739320186228703e+00
1.047197551196597631e+00 1.680007643785445121e-02 5.126507976248645626e+00 7.148375506854132588e+00
1.064650843716540951e+00 1.706126647626542495e-02 5.199679082065538971e+00 7.283322722458757781e+00
1.082104136236484271e+00 1.732032789101014061e-02 5.272637948113778172e+00 7.424604049128075367e+00
1.099557428756427591e+00 1.757718423051375656e-02 5.345407902097014663e+00 7.572035944469149626e+00
1.117010721276370910e+00 1.783176638896198651e-02 5.418011980901126456e+00 7.725792161176928019e+00
1.134464013796314230e+00 1.808400066046189636e-02 5.490472958888189758e+00 7.886419197652530855e+00
1.151917306316257550e+00 1.833378713415203046e-02 5.562813393341841994e+00 8.055206747466955974e+00
1.169370598836200648e+00 1.858105285293537925e-02 5.635055652004146154e+00 8.231815352156520049e+00
1.186823891356144189e+00 1.882572815470684099e-02 5.707221955267765878e+00 8.416646621761495695e+00
1.204277183876087287e+00 1.906773912516812608e-02 5.779334404562032290e+00 8.610393950514367845e+00
1.221730476396030607e+00 1.930698875739103940e-02 5.851415021162984509e+00 8.814508904250427435e+00
1.239183768915973927e+00 1.954339853036978283e-02 5.923485776389059154e+00 9.029028032476015042e+00
1.256637061435917246e+00 1.977689488535900111e-02 5.995568627266491646e+00 9.254484493015311841e+00
1.274090353955860566e+00 2.000740344037565260e-02 6.067685549212063378e+00 9.491682534541844518e+00
1.291543646475803886e+00 2.023484733198117891e-02 6.139858568944739581e+00 9.741570339045239280e+00
1.308996938995747206e+00 2.045914736016387139e-02 6.212109800221909950e+00 1.000518335934935088e+01
1.326450231515690303e+00 2.068022295631344321e-02 6.284461474468479025e+00 1.028361604209430169e+01
1.343903524035633845e+00 2.089799215366498070e-02 6.356935980049435386e+00 1.057807526883968663e+01
1.361356816555576943e+00 2.111237547901971892e-02 6.429555891237906273e+00 1.088969436010015635e+01
1.378810109075520263e+00 2.132329336072145282e-02 6.502344011306972149e+00 1.121984994365455357e+01
1.396263401595463582e+00 2.153071348434746832e-02 6.575323400842211896e+00 1.156741880685247637e+01
1.413716694115406902e+00 2.173481481495530276e-02 6.648517424423247668e+00 1.192132701175740550e+01
1.431169986635350000e+00 2.193575990253931324e-02 6.721949780144111486e+00 1.228217652215460198e+01
1.448623279155293542e+00 2.213370453429407830e-02 6.795644548672366447e+00 1.265008925918128924e+01
1.466076571675236861e+00 2.232879556478438443e-02 6.869626227002453511e+00 1.302536760651545578e+01
1.483529864195180181e+00 2.252117185336302563e-02 6.943919777790108938e+00 1.340831711871198273e+01
1.500983156715123279e+00 2.271096493943132455e-02 7.018550671013964681e+00 1.379925677393163852e+01
1.518436449235066599e+00 2.289829958461695944e-02 7.093544931589212510e+00 1.419852575786734050e+01
1.535889741755009918e+00 2.308329429476870670e-02 7.168929191982896576e+00 1.460648319373597737e+01
1.553343034274953460e+00 2.326606178926503635e-02 7.244730737973689827e+00 1.502350819380678892e+01
1.570796326794896558e+00 2.344670943095027507e-02 7.320977572238877684e+00 1.545000417393364600e+01
1.588249619314839878e+00 2.362533961941131258e-02 7.397698463314577033e+00 1.588639699998469368e+01
1.605702911834782975e+00 2.380205015162673021e-02 7.474923014292561341e+00 1.633314002670939757e+01
1.623156204354726295e+00 2.397693455333597956e-02 7.552681725011161973e+00 1.679071397062569559e+01
1.640609496874669837e+00 2.415008238404610028e-02 7.631006059047945378e+00 1.725962910289731056e+01
1.658062789394613157e+00 2.432157951831274284e-02 7.709928524493858681e+00 1.774042960446085004e+01
1.675516081914556255e+00 2.449150840565011283e-02 7.789482744986410800e+00 1.823369285609699020e+01
1.692969374434499574e+00 2.465994831109649676e-02 7.869703549219616789e+00 1.874003509210810492e+01
1.710422666954442894e+00 2.482697553826247738e-02 7.950627062443873072e+00 1.926011360978393938e+01
1.727875959474386436e+00 2.499266363648448147e-02 8.032290797833558926e+00 1.979462850157165121e+01
1.745329251994329534e+00 2.515708359353395138e-02 8.114733767325157388e+00 2.034432925349640087e+01
1.762782544514272853e+00 2.532030401518534091e-02 8.197996593722304937e+00 2.091001727239119745e+01
1.780235837034215951e+00 2.548239129282012586e-02 8.282121628254756729e+00 2.149254951239230493e+01
1.797689129554159271e+00 2.564340976054844609e-02 8.367153086348777080e+00 2.209284553087919534e+01
1.815142422074102813e+00 2.580342184344449480e-02 8.453137191958868257e+00 2.271189237384559334e+01
1.832595714594046132e+00 2.596248819601230592e-02 8.540122330002903439e+00 2.335074979076940593e+01
1.850049007113989230e+00 2.612066783218174731e-02 8.628159214534717236e+00 2.401055770789650623e+01
1.867502299633932550e+00 2.627801824777671949e-02 8.717301075980588010e+00 2.469254503582732241e+01
1.884955592153875870e+00 2.643459553695199152e-02 8.807603862179327336e+00 2.539803737434933240e+01
1.902408884673818967e+00 2.659045450407489242e-02 8.899126457453101935e+00 2.612846614123204958e+01
1.919862177193762509e+00 2.674564876828050899e-02 8.991930923619072757e+00 2.688537986372132238e+01
1.937315469713705829e+00 2.690023086250226125e-02 9.086082765234834824e+00 2.767045658577047362e+01
1.954768762233649149e+00 2.705425232847574052e-02 9.181651221821409692e+00 2.848551760755190898e+01
1.972222054753592246e+00 2.720776381014483603e-02 9.278709590057914625e+00 2.933254250300013766e+01
1.989675347273535566e+00 2.736081514136118331e-02 9.377335579395674969e+00 3.021368685655994923e+01
2.007128639793478886e+00 2.751345542927781038e-02 9.477611706097860633e+00 3.113130239880993599e+01
2.024581932313422428e+00 2.766573313596855377e-02 9.579625730853063459e+00 3.208795948173521850e+01
2.042035224833365525e+00 2.781769615992791059e-02 9.683471145834303684e+00 3.308647239959455533e+01
2.059488517353308623e+00 2.796939191244227768e-02 9.789247718017012545e+00 3.412992950350343335e+01
2.076941809873252165e+00 2.812086739144298644e-02 9.897062096945258958e+00 3.522172731308715043e+01
2.094395102393195263e+00 2.827216925634270031e-02 1.000702849710410725e+01 3.636560926869406529e+01
2.111848394913138804e+00 2.842334390187313889e-02 1.011926946565329821e+01 3.756571089847461309e+01
2.129301687433081902e+00 2.857443752805419873e-02 1.023391674564554066e+01 3.882661195613026450e+01
2.146754979953025444e+00 2.872549621005968112e-02 1.035111225022263071e+01 4.015339624950934905e+01
2.164208272472968542e+00 2.887656597087067192e-02 1.047100922124547751e+01 4.155174015103973773e+01
2.181661564992911639e+00 2.902769285093289436e-02 1.059377348638417615e+01 4.302797809914196847e+01
2.199114857512855181e+00 2.917892297667491405e-02 1.071958297641559810e+01 4.458851240767116764e+01
2.216568150032798723e+00 2.933030263186589895e-02 1.084861493163204926e+01 4.623534101239819449e+01
2.234021442552741821e+00 2.948187833025646062e-02 1.098096233948572475e+01 4.793980554933870764e+01
2.251474735072684918e+00 2.963369688605568125e-02 1.111656328391047843e+01 4.964533064223619618e+01
2.268928027592628460e+00 2.978580548597069971e-02 1.125522872701209742e+01 5.130253251667385683e+01
2.286381320112572002e+00 2.993825176585695330e-02 1.139680957698112707e+01 5.292257666268163518e+01
2.303834612632515100e+00 3.009108388679832338e-02 1.154105379040486845e+01 5.446270770254667326e+01
2.321287905152458197e+00 3.024435061182536438e-02 1.168778575180862767e+01 5.594729474147769821e+01
2.338741197672401295e+00 3.039810138641542772e-02 1.183681253603514349e+01 5.736563319569231822e+01
2.356194490192344837e+00 3.055238642365531998e-02 1.198792121369462116e+01 5.870559306638291730e+01
2.373647782712288379e+00 3.070725678962988453e-02 1.214091544179336069e+01 5.996918696293234774e+01
2.391101075232231477e+00 3.086276449185184484e-02 1.229562665382492170e+01 6.116325028022252042e+01
2.408554367752174574e+00 3.101896257294736031e-02 1.245180334047431359e+01 6.225048908686527227e+01
2.426007660272118116e+00 3.117590520984623789e-02 1.260927315032223994e+01 6.325813955136869282e+01
2.443460952792061214e+00 3.133364781540674132e-02 1.276784405479098083e+01 6.417443697883730636e+01
2.460914245312004311e+00 3.149224714510998058e-02 1.292731759844638972e+01 6.499287075300544814e+01
2.478367537831947853e+00 3.165176141000029808e-02 1.308748947346018632e+01 6.570721839920766172e+01
2.495820830351891395e+00 3.181225039754318612e-02 1.324815561255827312e+01 6.631389620647945549e+01
2.513274122871834493e+00 3.197377559820552967e-02 1.340911374082725516e+01 6.681018938899933346e+01
2.530727415391777591e+00 3.213640033915507455e-02 1.357018213118449168e+01 6.720156416429087187e+01
2.548180707911721132e+00 3.230018992659176857e-02 1.373117329843825374e+01 6.748284954114315326e+01
2.565634000431664674e+00 3.246521179756479969e-02 1.389186584423226556e+01 6.763707365502341418e+01
2.583087292951607772e+00 3.263153568255814513e-02 1.405205248045114352e+01 6.766770205327505039e+01
2.600540585471550870e+00 3.279923377931471401e-02 1.421154373728715470e+01 6.758028314209578014e+01
2.617993877991494411e+00 3.296838093848029894e-02 1.437014867989618061e+01 6.737259490201932977e+01
2.635447170511437509e+00 3.313905486296835762e-02 1.452767194252379745e+01 6.704147366489469562e+01
2.652900463031380607e+00 3.331133632247380155e-02 1.468391372850528853e+01 6.658409189026252761e+01
2.670353755551324149e+00 3.348530938465841406e-02 1.483866817794210213e+01 6.599728416047018698e+01
2.687807048071267690e+00 3.366106166477202122e-02 1.499172187798304456e+01 6.527763116150984501e+01
2.705260340591210788e+00 3.383868459549838059e-02 1.514287238880197251e+01 6.443010729170511297e+01
2.722713633111153886e+00 3.401827371966906904e-02 1.529193328317310119e+01 6.346234111835514113e+01
2.740166925631096984e+00 3.419992900664405033e-02 1.543873090126060355e+01 6.238103388950893446e+01
2.757620218151040525e+00 3.438375520145704051e-02 1.558306327047226958e+01 6.117573297131705345e+01
2.775073510670984067e+00 3.456986218401345706e-02 1.572469267505331914e+01 5.983329669301119935e+01
2.792526803190927165e+00 3.475836545055321913e-02 1.586343062366183077e+01 5.837723300556281458e+01
2.809980095710870263e+00 3.494938627400709374e-02 1.599909254537565317e+01 5.681233074851350295e+01
2.827433388230813804e+00 3.514305321610568245e-02 1.613149017642757599e+01 5.514031102967287268e+01
2.844886680750756902e+00 3.533950033444668848e-02 1.626043372880291216e+01 5.336494894559823621e+01
2.862339973270700000e+00 3.553886182766513580e-02 1.638565485762343954e+01 5.146004287515186348e+01
2.879793265790643542e+00 3.574114721387271904e-02 1.650706709431843322e+01 4.953793189832593669e+01
2.897246558310587083e+00 3.594633581460664890e-02 1.662443696587340014e+01 4.754669665807507073e+01
2.914699850830530625e+00 3.615439528836529581e-02 1.673785836530001347e+01 4.562232338910400387e+01
2.932153143350473723e+00 3.636529306527961497e-02 1.684741690612271725e+01 4.376002535143971528e+01
2.949606435870416821e+00 3.657897754911182409e-02 1.695315364129852753e+01 4.194434440949806486e+01
2.967059728390360362e+00 3.679540939812573491e-02 1.705518425412481776e+01 4.020089717021671305e+01
2.984513020910303460e+00 3.701455470812316240e-02 1.715356490114070098e+01 3.850364887167687300e+01
3.001966313430246558e+00 3.723637837895399372e-02 1.724837195639131338e+01 3.685962248591172141e+01
3.019419605950190100e+00 3.746084471637867869e-02 1.733970978048433409e+01 3.527859410735146639e+01
3.036872898470133197e+00 3.768791785610845629e-02 1.742762694043150518e+01 3.373775222919238104e+01
3.054326190990076295e+00 3.791756194723867879e-02 1.751231971566231493e+01 3.229273068052963680e+01
3.071779483510019837e+00 3.814974252838599506e-02 1.759402785442829398e+01 3.095812884691531153e+01
3.089232776029963379e+00 3.838442479133229168e-02 1.767297735124776992e+01 2.972684538801984644e+01
3.106686068549906921e+00 3.862156464565259101e-02 1.774937122192890726e+01 2.858952523366436793e+01
3.124139361069850018e+00 3.886111807933557288e-02 1.782339151925913256e+01 2.753650238707217568e+01
3.141592653589793116e+00 3.910305015343196189e-02 1.789520251146222307e+01 2.655853410142133697e+01
3.159045946109736214e+00 3.934733790890479477e-02 1.796495289148392516e+01 2.564725949582802045e+01
3.176499238629679756e+00 3.959394885010800169e-02 1.803277770276813996e+01 2.479755639902090181e+01
3.193952531149622853e+00 3.984282306784938527e-02 1.809879997608300783e+01 2.400658311528614419e+01
3.211405823669565951e+00 4.009392661852733547e-02 1.816313212780453412e+01 2.326676322635312033e+01
3.228859116189509493e+00 4.034723848522956541e-02 1.822587716449237050e+01 2.257263637590248706e+01
3.246312408709452590e+00 4.060272219892836071e-02 1.828712972266656323e+01 2.192181765639327296e+01
3.263765701229396576e+00 4.086033494469782507e-02 1.834697696501876152e+01 2.131136744759929869e+01
3.281218993749339674e+00 4.112003328407209946e-02 1.840549935029348916e+01 2.073817119406532683e+01
3.298672286269282772e+00 4.138177895378705728e-02 1.846277133046802632e+01 2.019898695472501160e+01
3.316125578789226314e+00 4.164553973060363540e-02 1.851886195904344135e+01 1.969084676502946962e+01
3.333578871309169411e+00 4.191128332469547246e-02 1.857383538518156030e+01 1.921151422555080401e+01
3.351032163829112509e+00 4.217897434072468560e-02 1.862775134774673091e+01 1.875918660319988973e+01
3.368485456349056051e+00 4.244857471502908042e-02 1.868066558295290847e+01 1.833219139652007001e+01
3.385938748868999149e+00 4.272004601885568548e-02 1.873263016202893994e+01 1.792884234236644048e+01
3.403392041388942246e+00 4.299335017876828452e-02 1.878369386721724865e+01 1.754757421712376697e+01
3.420845333908885788e+00 4.326844947689327536e-02 1.883390241799257936e+01 1.718693853994803078e+01
3.438298626428828886e+00 4.354530655091964908e-02 1.888329880144813799e+01 1.684563545617408309e+01
