# angles(rad), pulling distance(m),                                     elastic band force(n), cable force(n)
0.000000000000000000e+00 2.063118037058177018e-04 8.097836229561052035e-02 1.589219579852435837e-01
1.745329251994329547e-02 4.149009572681363971e-04 1.628853337655034872e-01 3.198019685527214717e-01
3.490658503988659095e-02 6.258907734891166552e-04 2.456728853063773199e-01 4.819819510434379395e-01
5.235987755982988295e-02 8.394055249031564126e-04 3.292925279087353108e-01 6.448107990899413222e-01
6.981317007977318190e-02 1.055570443776890702e-03 4.136953126568853056e-01 8.076480820158744578e-01
8.726646259971647390e-02 1.274501654783953119e-03 4.988318315127205915e-01 9.699120886903512817e-01
1.047197551196597659e-01 1.496239390440212832e-03 5.846523661333393740e-01 1.131408203485830377e+00
1.221730476396030718e-01 1.720725921806984899e-03 6.711072117644916180e-01 1.292292905988572604e+00
1.396263401595463638e-01 1.947867556264034012e-03 7.581467198313169842e-01 1.452589651701943207e+00
1.570796326794896558e-01 2.177575919835054649e-03 8.457212979383444962e-01 1.612124276010077573e+00
1.745329251994329478e-01 2.409767180237503900e-03 9.337814098694930953e-01 1.770714697224364587e+00
1.919862177193762398e-01 2.644358007892119982e-03 1.022277575588071530e+00 1.928200830443859148e+00
2.094395102393195318e-01 2.881264913782887599e-03 1.111160371236778133e+00 2.084427210727171520e+00
2.268928027592628516e-01 3.120404256530235655e-03 1.200379308668945821e+00 2.239208429792988397e+00
2.443460952792061436e-01 3.361692284371133738e-03 1.289880822045224251e+00 2.392292039541417559e+00
2.617993877991494078e-01 3.605045150586904355e-03 1.379616968903866425e+00 2.543662477771321928e+00
2.792526803190927276e-01 3.850378913526984748e-03 1.469538550757035988e+00 2.693131786972215114e+00
2.967059728390360474e-01 4.097609536608924283e-03 1.559602040258132538e+00 2.840732273123859120e+00
3.141592653589793116e-01 4.346652888318386192e-03 1.649752406606408872e+00 2.985941660731897151e+00
3.316125578789225758e-01 4.597424742209147569e-03 1.739944696890444620e+00 3.128931631387770640e+00
3.490658503988658956e-01 4.849840776903099372e-03 1.830126805590843952e+00 3.269298931769940353e+00
3.665191429188092154e-01 5.103816177545061721e-03 1.920251029470138482e+00 3.407045195065613985e+00
3.839724354387524796e-01 5.359264658892454354e-03 2.010264039787316825e+00 3.541808446055091597e+00
4.014257279586957439e-01 5.616100535851719505e-03 2.100119262963751954e+00 3.673682339571822553e+00
4.188790204786390636e-01 5.874239340748724225e-03 2.189764997318263795e+00 3.802277835111296689e+00
4.363323129985823834e-01 6.133597822634063480e-03 2.279153783796504129e+00 3.927590673917644271e+00
4.537856055185257032e-01 6.394093803018847597e-03 2.368235221648429256e+00 4.049310058535119161e+00
4.712388980384689674e-01 6.655645830436413175e-03 2.456961187450616979e+00 4.167359290758176904e+00
4.886921905584122872e-01 6.918170436604823871e-03 2.545280939825011135e+00 4.281476422526287351e+00
5.061454830783556069e-01 7.181578680078438102e-03 2.633142470017912018e+00 4.391508852965409382e+00
5.235987755982988157e-01 7.445788967496053817e-03 2.720500091914960894e+00 4.497486088131537940e+00
5.410520681182421354e-01 7.710721424074917785e-03 2.807301787872137133e+00 4.598880775077449634e+00
5.585053606381854552e-01 7.976289613067925541e-03 2.893499710988224560e+00 4.695849803583790560e+00
5.759586531581287749e-01 8.242407856380404296e-03 2.979042473122341939e+00 4.788012999291209937e+00
5.934119456780720947e-01 8.508993337990326117e-03 3.063882570894279844e+00 4.875361090683139942e+00
6.108652381980153034e-01 8.775969652695026282e-03 3.147968659646478873e+00 4.957375570880831361e+00
6.283185307179586232e-01 9.043253239637052618e-03 3.231252368143031184e+00 5.034178929318049001e+00
6.457718232379019430e-01 9.310736626406123165e-03 3.313682434250621256e+00 5.105869665667437829e+00
6.632251157578451517e-01 9.578370510958911579e-03 3.395218794788933625e+00 5.171874709006838877e+00
6.806784082777884715e-01 9.846034138524237256e-03 3.475902860507185110e+00 5.238851041854257318e+00
6.981317007977317912e-01 1.011368054270699729e-02 3.555775734315655523e+00 5.305694791331516669e+00
7.155849933176750000e-01 1.038119549538281741e-02 3.634877592355418408e+00 5.374009348382910112e+00
7.330382858376184307e-01 1.064850220885451594e-02 3.713246799340910176e+00 5.443264092141355093e+00
7.504915783575616395e-01 1.091552787817815472e-02 3.790920236302162127e+00 5.513586104762621787e+00
7.679448708775049592e-01 1.118218968093396756e-02 3.867933410685487683e+00 5.585386192955950513e+00
7.853981633974482790e-01 1.144839877646418140e-02 3.944320519764529909e+00 5.658996008116509380e+00
8.028514559173914877e-01 1.171406638315231237e-02 4.020114564306644489e+00 5.734623542364194471e+00
8.203047484373349185e-01 1.197911087292486895e-02 4.095347421598098947e+00 5.812320195609665952e+00
8.377580409572781273e-01 1.224344832650093966e-02 4.170049929032265901e+00 5.892339159852205022e+00
8.552113334772214470e-01 1.250698940391057300e-02 4.244251956017973448e+00 5.975009688623904580e+00
8.726646259971647668e-01 1.276964945887912838e-02 4.317982473574525137e+00 6.060439654877895599e+00
8.901179185171079755e-01 1.303134738481191886e-02 4.391269619003444369e+00 6.148761287243653229e+00
9.075712110370514063e-01 1.329200587516033739e-02 4.464140757272222260e+00 6.240100177432130302e+00
9.250245035569946150e-01 1.355154519351058247e-02 4.536622538701054808e+00 6.334733507150256848e+00
9.424777960769379348e-01 1.380986285261915671e-02 4.608740953299659715e+00 6.433456620709240070e+00
9.599310885968812546e-01 1.406688549254687080e-02 4.680521382188966406e+00 6.535802300015000732e+00
9.773843811168245743e-01 1.432253677877235766e-02 4.751988646414256223e+00 6.642087219724062130e+00
9.948376736367677831e-01 1.457671470742808763e-02 4.823167053964524165e+00 6.753248640937222547e+00
1.012290966156711214e+00 1.482935296666981241e-02 4.894080444546617947e+00 6.868631836404841984e+00
1.029744258676654312e+00 1.508035354785829639e-02 4.964752231963053042e+00 6.989384499653536587e+00
1.047197551196597631e+00 1.532964189889216185e-02 5.035205444716737588e+00 7.115182056921407039e+00
1.064650843716540951e+00 1.557712896784380595e-02 5.105462765446189266e+00 7.246765184614776700e+00
1.082104136236484271e+00 1.582273353382804282e-02 5.175546569569015709e+00 7.384268092831770325e+00
1.099557428756427591e+00 1.606637024017987941e-02 5.245478961895923220e+00 7.528194297949988290e+00
1.117010721276370910e+00 1.630795603072258265e-02 5.315281812026366737e+00 7.678883325308032859e+00
1.134464013796314230e+00 1.654740590422910593e-02 5.384976789196029401e+00 7.836835093837555277e+00
1.151917306316257550e+00 1.678463718107862240e-02 5.454585397124044555e+00 8.002445996173031872e+00
1.169370598836200648e+00 1.701956441025961886e-02 5.524129007299507066e+00 8.176316461524889334e+00
1.186823891356144189e+00 1.725210467009568802e-02 5.593628891542590686e+00 8.358908705422352980e+00
1.204277183876087287e+00 1.748217425970927108e-02 5.663106254678443641e+00 8.550840865019381454e+00
1.221730476396030607e+00 1.770968631895796647e-02 5.732582267632222894e+00 8.752875807986598033e+00
1.239183768915973927e+00 1.793456478407916624e-02 5.802078099391543731e+00 8.965292502161819499e+00
1.256637061435917246e+00 1.815671189314763817e-02 5.871614948803532741e+00 9.189712308484002889e+00
1.274090353955860566e+00 1.837606510845216090e-02 5.941214077135242633e+00 9.425513102842693058e+00
1.291543646475803886e+00 1.859251470425508923e-02 6.010896841278463576e+00 9.675599192649787739e+00
1.308996938995747206e+00 1.880598951021093465e-02 6.080684726348163593e+00 9.939302320182086703e+00
1.326450231515690303e+00 1.901641953399319310e-02 6.150599378697474862e+00 1.021757754840348831e+01
1.343903524035633845e+00 1.922370672357799626e-02 6.220662640245701702e+00 1.051294859175360408e+01
1.361356816555576943e+00 1.942788321546540589e-02 6.290896583775149153e+00 1.081991544007190420e+01
1.378810109075520263e+00 1.962910260906442633e-02 6.361323548258611460e+00 1.113234414406868744e+01
1.396263401595463582e+00 1.982750803154248800e-02 6.431966175186410339e+00 1.145056877102627624e+01
1.413716694115406902e+00 2.002323613663228863e-02 6.502847446599943737e+00 1.177475494926438948e+01
1.431169986635350000e+00 2.021641623202841478e-02 6.573990724828146170e+00 1.210516151384660688e+01
1.448623279155293542e+00 2.040717117255790372e-02 6.645419792958636940e+00 1.244204060532768885e+01
1.466076571675236861e+00 2.059561778323160813e-02 6.717158896956965108e+00 1.278566271262043053e+01
1.483529864195180181e+00 2.078186731750415045e-02 6.789232789816079361e+00 1.313631302757387687e+01
1.500983156715123279e+00 2.096602586588148381e-02 6.861666778396963373e+00 1.349429329921364129e+01
1.518436449235066599e+00 2.114819473162004790e-02 6.934486772181045033e+00 1.385992281388828395e+01
1.535889741755009918e+00 2.132847077583420459e-02 7.007719334323378568e+00 1.423353956605641280e+01
1.553343034274953460e+00 2.150694673503222160e-02 7.081391735586619163e+00 1.461550160006450128e+01
1.570796326794896558e+00 2.168371151391424931e-02 7.155532011454720731e+00 1.500618846886785818e+01
1.588249619314839878e+00 2.185885045583485509e-02 7.230169022926589584e+00 1.540600286806430219e+01
1.605702911834782975e+00 2.203244559307047587e-02 7.305332521070607932e+00 1.581537236966614834e+01
1.623156204354726295e+00 2.220457587879673747e-02 7.381053215478434737e+00 1.623475126933720958e+01
1.640609496874669837e+00 2.237531740246716250e-02 7.457362847310866627e+00 1.666462267308779488e+01
1.658062789394613157e+00 2.254474359010754173e-02 7.534294267405685197e+00 1.710550079288992009e+01
1.675516081914556255e+00 2.271292539088606496e-02 7.611881519947632846e+00 1.755793347061663923e+01
1.692969374434499574e+00 2.287993145121748270e-02 7.690159932254382547e+00 1.802250495243305295e+01
1.710422666954442894e+00 2.304582827839661216e-02 7.769166211294561641e+00 1.849983884671582501e+01
1.727875959474386436e+00 2.321068039433949945e-02 7.848938547625714968e+00 1.899060142730212064e+01
1.745329251994329534e+00 2.337455047908687869e-02 7.929516727522869957e+00 1.949550542897552674e+01
1.762782544514272853e+00 2.353749950561686080e-02 8.010942254163307297e+00 2.001531416977616828e+01
1.780235837034215951e+00 2.369958686686635466e-02 8.093258478841306669e+00 2.055084610502029818e+01
1.797689129554159271e+00 2.386087049736879129e-02 8.176510743309183482e+00 2.110297966091875566e+01
1.815142422074102813e+00 2.402140698872771291e-02 8.260746534478522918e+00 2.167265878589008565e+01
1.832595714594046132e+00 2.418125169754110210e-02 8.346015652869210655e+00 2.226089940912127574e+01
1.850049007113989230e+00 2.434045884789643940e-02 8.432370396363884524e+00 2.286879643925707128e+01
1.867502299633932550e+00 2.449908163087300209e-02 8.519865761012624716e+00 2.349753129814465069e+01
1.884955592153875870e+00 2.465717230094045462e-02 8.608559660837030947e+00 2.414838041564816606e+01
1.902408884673818967e+00 2.481478226583520852e-02 8.698513168805147799e+00 2.482272533222725741e+01
1.919862177193762509e+00 2.497196217282217703e-02 8.789790781864624591e+00 2.552206376885392913e+01
1.937315469713705829e+00 2.512876199473138700e-02 8.882460713761345161e+00 2.624802182161152331e+01
1.954768762233649149e+00 2.528523111310005539e-02 8.976595217187302467e+00 2.700236768877184090e+01
1.972222054753592246e+00 2.544141839630643248e-02 9.072270939452605987e+00 2.778702775602184971e+01
1.989675347273535566e+00 2.559737227648491847e-02 9.169569319460215695e+00 2.860410523706975994e+01
2.007128639793478886e+00 2.575314082818971895e-02 9.268577026279045228e+00 2.945589937128795199e+01
2.024581932313422428e+00 2.590877184259418597e-02 9.369386448967864212e+00 3.034492971992693455e+01
2.042035224833365525e+00 2.606431289940755805e-02 9.472096243497034607e+00 3.127396325001905453e+01
2.059488517353308623e+00 2.621981144097104352e-02 9.576811945337645682e+00 3.224604469496411241e+01
2.076941809873252165e+00 2.637531484617388136e-02 9.683646656005873155e+00 3.326453164669570839e+01
2.094395102393195263e+00 2.653087050084916923e-02 9.792721818249336962e+00 3.433313701646933680e+01
2.111848394913138804e+00 2.668652586918922320e-02 9.904168089735781777e+00 3.545597615896834043e+01
2.129301687433081902e+00 2.684232856886771545e-02 1.001812633314984424e+01 3.663762186347784677e+01
2.146754979953025444e+00 2.699832644328678879e-02 1.013474874163209449e+01 3.788317026796238451e+01
2.164208272472968542e+00 2.715456763375008811e-02 1.025420012215337628e+01 3.919831758515862674e+01
2.181661564992911639e+00 2.731110065591811631e-02 1.037665936428070168e+01 4.058944956033570151e+01
2.199114857512855181e+00 2.746797447746939652e-02 1.050232112715913679e+01 4.206374824377036958e+01
2.216568150032798723e+00 2.762523859460556605e-02 1.063139778458564599e+01 4.362931973279417264e+01
2.234021442552741821e+00 2.778294311141493028e-02 1.076412170100818599e+01 4.529535418232921273e+01
2.251474735072684918e+00 2.794113882479226998e-02 1.090074457205336778e+01 4.707115598043275639e+01
2.268928027592628460e+00 2.809987730923663163e-02 1.104146422102081715e+01 4.894058850024201490e+01
2.286381320112572002e+00 2.825921100366874869e-02 1.118596025992465215e+01 5.072144202315837447e+01
2.303834612632515100e+00 2.841919330320950496e-02 1.133392596984877976e+01 5.241306091893473251e+01
2.321287905152458197e+00 2.857987865671376276e-02 1.148504126746836107e+01 5.400509105083683181e+01
2.338741197672401295e+00 2.874132266584966330e-02 1.163898454750405342e+01 5.549117205145659426e+01
2.356194490192344837e+00 2.890358218865579296e-02 1.179544787350453205e+01 5.687046818690888728e+01
2.373647782712288379e+00 2.906671544931024517e-02 1.195410827160311662e+01 5.813172524343811887e+01
2.391101075232231477e+00 2.923078215550205250e-02 1.211465284178538049e+01 5.927289510883336732e+01
2.408554367752174574e+00 2.939584362023657874e-02 1.227676186974601968e+01 6.028584371311794854e+01
2.426007660272118116e+00 2.956196289038084957e-02 1.244012304864953933e+01 6.116789356127428334e+01
2.443460952792061214e+00 2.972920488323603505e-02 1.260441993665059002e+01 6.191229054664585618e+01
2.460914245312004311e+00 2.989763653241575211e-02 1.276932136445518751e+01 6.250842212106054063e+01
2.478367537831947853e+00 3.006732694377510853e-02 1.293452028778481733e+01 6.296080044270282627e+01
2.495820830351891395e+00 3.023834756059143661e-02 1.309971616796087268e+01 6.326778556607963111e+01
2.513274122871834493e+00 3.041077234015147554e-02 1.326456726890616622e+01 6.340963646355277206e+01
2.530727415391777591e+00 3.058467794307479989e-02 1.342877855446184299e+01 6.340097595483908322e+01
2.548180707911721132e+00 3.076014393662597143e-02 1.359197452397167005e+01 6.320755991232894644e+01
2.565634000431664674e+00 3.093725301340238820e-02 1.375392311936860246e+01 6.288295808777343154e+01
2.583087292951607772e+00 3.111609122694642543e-02 1.391428940539916681e+01 6.238551790690978294e+01
2.600540585471550870e+00 3.129674824603520533e-02 1.407273941952776930e+01 6.171434055259473439e+01
2.617993877991494411e+00 3.147931762950683526e-02 1.422893208104905405e+01 6.086603158984623008e+01
2.635447170511437509e+00 3.166389712391236289e-02 1.438254946005480583e+01 5.984981047298835222e+01
2.652900463031380607e+00 3.185058898637031094e-02 1.453330480335028874e+01 5.867886596665338317e+01
2.670353755551324149e+00 3.203950033606353665e-02 1.468089908985192871e+01 5.735009648409079119e+01
2.687807048071267690e+00 3.223074353574161693e-02 1.482497815434719790e+01 5.584431203924200560e+01
2.705260340591210788e+00 3.242443660834337660e-02 1.496524613027635731e+01 5.418739957446605615e+01
2.722713633111153886e+00 3.262070371820421227e-02 1.510139737102979041e+01 5.237948402649380597e+01
2.740166925631096984e+00 3.281967546143189224e-02 1.523303617607950322e+01 5.039053905266355571e+01
2.757620218151040525e+00 3.302149065300785669e-02 1.536001223116397441e+01 4.832029105272494718e+01
2.775073510670984067e+00 3.322629142405235381e-02 1.548221730249485795e+01 4.619136588603397797e+01
2.792526803190927165e+00 3.343423510321779507e-02 1.559977642654387076e+01 4.409597972453595816e+01
2.809980095710870263e+00 3.364529009316686442e-02 1.571278249845996555e+01 4.206581018177672604e+01
2.827433388230813804e+00 3.385942854161280713e-02 1.582128331407716715e+01 4.008206270630476098e+01
2.844886680750756902e+00 3.407662174692951962e-02 1.592542148364533006e+01 3.817900841994556771e+01
2.862339973270700000e+00 3.429683916811233912e-02 1.602523635100437716e+01 3.631767260240923179e+01
2.879793265790643542e+00 3.452004917734208256e-02 1.612083224575816942e+01 3.452097394796533081e+01
2.897246558310587083e+00 3.474619355975120533e-02 1.621232282127450830e+01 3.279486161835471592e+01
2.914699850830530625e+00 3.497523837427519294e-02 1.629982636642962746e+01 3.113566651660831397e+01
2.932153143350473723e+00 3.520714974586105356e-02 1.638370051504072578e+01 2.962702782535855661e+01
2.949606435870416821e+00 3.544189311725270269e-02 1.646425489158593081e+01 2.824931286047437240e+01
2.967059728390360362e+00 3.567943283389908571e-02 1.654176499965772962e+01 2.698820245564410314e+01
2.984513020910303460e+00 3.591973273208607514e-02 1.661647459804682825e+01 2.583043424547559397e+01
3.001966313430246558e+00 3.616275641712495686e-02 1.668860016957063408e+01 2.476455792714216386e+01
3.019419605950190100e+00 3.640846776688017039e-02 1.675833502911564565e+01 2.378075210257650696e+01
3.036872898470133197e+00 3.665683104173347862e-02 1.682585248291093194e+01 2.287050527603620864e+01
3.054326190990076295e+00 3.690781226700388939e-02 1.689130852827426210e+01 2.202631404164750251e+01
3.071779483510019837e+00 3.716137734012243260e-02 1.695484409595897191e+01 2.124179863168502891e+01
3.089232776029963379e+00 3.741748385680523231e-02 1.701658693829004676e+01 2.051202089568641185e+01
3.106686068549906921e+00 3.767608490650558445e-02 1.707665322864602331e+01 1.983230950393900827e+01
3.124139361069850018e+00 3.793714799648606473e-02 1.713514896301518675e+01 1.919714353705802168e+01
3.141592653589793116e+00 3.820064731358915194e-02 1.719217111935494557e+01 1.860222409996234560e+01
3.159045946109736214e+00 3.846654786408824911e-02 1.724780862423481054e+01 1.804481101480638472e+01
3.176499238629679756e+00 3.873480014923873921e-02 1.730214330467579487e+01 1.752280370838613521e+01
3.193952531149622853e+00 3.900536611322457520e-02 1.735525058170066970e+01 1.703263202253242170e+01
3.211405823669565951e+00 3.927821726013350223e-02 1.740720015227273265e+01 1.657124375354613477e+01
3.228859116189509493e+00 3.955331896444950340e-02 1.745805658852314224e+01 1.613684190284908837e+01
3.246312408709452590e+00 3.983063286151703603e-02 1.750787979302404906e+01 1.572764085264578782e+01
3.263765701229396576e+00 4.011011947167533731e-02 1.755672551239585033e+01 1.534189575272472617e+01
3.281218993749339674e+00 4.039174063086944239e-02 1.760464566758241034e+01 1.497787586005734539e+01
3.298672286269282772e+00 4.067546059370791278e-02 1.765168874862061799e+01 1.463396893110606101e+01
3.316125578789226314e+00 4.096124460645754473e-02 1.769790011951855035e+01 1.430878198309450511e+01
3.333578871309169411e+00 4.124905754770876593e-02 1.774332224736656727e+01 1.400109821442968716e+01
3.351032163829112509e+00 4.153886387684437714e-02 1.778799505426486505e+01 1.370983978398948011e+01
3.368485456349056051e+00 4.183062766162906621e-02 1.783195600021610616e+01 1.343397801253704671e+01
3.385938748868999149e+00 4.212431259853811893e-02 1.787524040946936310e+01 1.317260649332278888e+01
3.403392041388942246e+00 4.241988201323036722e-02 1.791788159810612413e+01 1.292487874619078170e+01
3.420845333908885788e+00 4.271729886054820985e-02 1.795991098111475992e+01 1.269000031830046282e+01
3.438298626428828886e+00 4.301652572451758472e-02 1.800135834087365083e+01 1.246727592244586624e+01
