# angles(rad), pulling distance(m),                                     elastic band force(n), cable force(n)
0.000000000000000000e+00 2.104661254071839326e-04 7.059995285799290643e-02 1.184122464816537434e-01
1.745329251994329547e-02 4.234685378543442112e-04 1.414327106179876781e-01 2.351632738673454792e-01
3.490658503988659095e-02 6.391356383262010183e-04 2.124698473230546281e-01 3.499200748971471597e-01
5.235987755982988295e-02 8.576010689610905719e-04 2.836826862895929779e-01 4.623580352650429881e-01
6.981317007977318190e-02 1.079006283699179359e-03 3.550423001073309548e-01 5.721563842701580249e-01
8.726646259971647390e-02 1.303328351875482176e-03 4.265195106393255831e-01 6.795235329680092695e-01
1.047197551196597659e-01 1.530485058295116612e-03 4.980848890219629066e-01 7.846044722025793394e-01
1.221730476396030718e-01 1.760394178873421695e-03 5.697088344749076105e-01 8.874113906802085783e-01
1.396263401595463638e-01 1.992974486849883979e-03 6.413618895409001208e-01 9.879499083205688370e-01
1.570796326794896558e-01 2.228143644279772032e-03 7.130148188957065036e-01 1.086230886005868479e+00
1.745329251994329478e-01 2.465822611852163011e-03 7.846386093481184654e-01 1.182241573809109436e+00
1.919862177193762398e-01 2.705929530274644654e-03 8.562044698399533527e-01 1.275994253802273715e+00
2.094395102393195318e-01 2.948381540275569861e-03 9.276838314460540413e-01 1.367492231634049427e+00
2.268928027592628516e-01 3.193096341909488871e-03 9.990483459043767445e-01 1.456728396685063265e+00
2.443460952792061436e-01 3.439994838770380880e-03 1.070269571413596799e+00 1.543668986860046610e+00
2.617993877991494078e-01 3.689000827346776163e-03 1.141318270334248375e+00 1.628257589811709094e+00
2.792526803190927276e-01 3.940018466697367376e-03 1.212164313965664375e+00 1.710577911931402628e+00
2.967059728390360474e-01 4.192975485749418814e-03 1.282777029021475279e+00 1.790430033724316861e+00
3.141592653589793116e-01 4.447788804234177780e-03 1.353126960319377403e+00 1.867884874736265965e+00
3.316125578789225758e-01 4.704370556356202680e-03 1.423186397220554733e+00 1.942999390449017705e+00
3.490658503988658956e-01 4.962669735261263614e-03 1.492927932528564039e+00 2.015474585713333600e+00
3.665191429188092154e-01 5.222583521344950977e-03 1.562322488708702606e+00 2.085627648840486792e+00
3.839724354387524796e-01 5.484026661582064657e-03 1.631339767257718787e+00 2.153252730647292168e+00
4.014257279586957439e-01 5.746920923014973460e-03 1.699949566210949170e+00 2.218253021816710469e+00
4.188790204786390636e-01 6.011186917890942900e-03 1.768122813387528192e+00 2.280631559353475613e+00
4.363323129985823834e-01 6.276744103662143873e-03 1.835832971018315440e+00 2.340447679667483349e+00
4.537856055185257032e-01 6.543510782985643981e-03 1.903051980697616274e+00 2.397624580309729136e+00
4.712388980384689674e-01 6.811404103723411006e-03 1.969747336833645557e+00 2.451964829998745987e+00
4.886921905584122872e-01 7.080340058942313775e-03 2.035890217762652110e+00 2.503563425507704387e+00
5.061454830783556069e-01 7.350234176851636395e-03 2.101454004786196261e+00 2.552469165998386469e+00
5.235987755982988157e-01 7.621004716747477141e-03 2.166407070585261607e+00 2.598413790832170722e+00
5.410520681182421354e-01 7.892573593751037869e-03 2.230718576795360342e+00 2.641334920029819511e+00
5.585053606381854552e-01 8.164865932211577346e-03 2.294378343200765169e+00 2.682036340051992873e+00
5.759586531581287749e-01 8.437804413087071631e-03 2.357410408223328258e+00 2.722086780496564717e+00
5.934119456780720947e-01 8.711305396578498256e-03 2.419845639595773701e+00 2.762030696655658257e+00
6.108652381980153034e-01 8.985281292853886451e-03 2.481714123264107119e+00 2.802069302299249109e+00
6.283185307179586232e-01 9.259648769480197106e-03 2.543044498846244394e+00 2.842280655020074320e+00
6.457718232379019430e-01 9.534329594349013823e-03 2.603864408447412071e+00 2.882742142832567467e+00
6.632251157578451517e-01 9.809245295330195485e-03 2.664200521830562440e+00 2.923578103886105950e+00
6.806784082777884715e-01 1.008431458699196939e-02 2.724078564526527302e+00 2.964934609902701634e+00
6.981317007977317912e-01 1.035945033857701807e-02 2.783523409658927861e+00 3.006990495716035827e+00
7.155849933176750000e-01 1.063456492955011309e-02 2.842559136443985945e+00 3.049866311268988550e+00
7.330382858376184307e-01 1.090958794590257339e-02 2.901209079308181060e+00 3.093481938261553488e+00
7.504915783575616395e-01 1.118444533483559968e-02 2.959495887367521672e+00 3.137983108422657264e+00
7.679448708775049592e-01 1.145903990445467334e-02 3.017441572636243574e+00 3.183743216905039031e+00
7.853981633974482790e-01 1.173329863594885052e-02 3.075067554628760025e+00 3.230595185855914320e+00
8.028514559173914877e-01 1.200715185436846202e-02 3.132394709836593183e+00 3.278604479057980470e+00
8.203047484373349185e-01 1.228049504608781303e-02 3.189443408300884020e+00 3.328299382994973854e+00
8.377580409572781273e-01 1.255325015994674179e-02 3.246233557708526174e+00 3.379479969158694530e+00
8.552113334772214470e-01 1.282535331766368469e-02 3.302784639670147904e+00 3.432081538977692414e+00
8.726646259971647668e-01 1.309672296616944641e-02 3.359115744611896659e+00 3.486438195338487311e+00
8.901179185171079755e-01 1.336725738672244097e-02 3.415245610115588804e+00 3.542936909211374719e+00
9.075712110370514063e-01 1.363687848027946709e-02 3.471192648698050220e+00 3.601404965794915647e+00
9.250245035569946150e-01 1.390551359669474005e-02 3.526974985528591233e+00 3.661898512395390881e+00
9.424777960769379348e-01 1.417308574504967666e-02 3.582610483864677953e+00 3.724608873519604568e+00
9.599310885968812546e-01 1.443951662110654413e-02 3.638116778642447979e+00 3.789695573950222496e+00
9.773843811168245743e-01 1.470471831351334233e-02 3.693511303158151460e+00 3.857447148526892189e+00
9.948376736367677831e-01 1.496860003844851725e-02 3.748811317282891409e+00 3.928072678160190012e+00
1.012290966156711214e+00 1.523108228714107129e-02 3.804033936502623892e+00 4.001579509105719801e+00
1.029744258676654312e+00 1.549208716798219573e-02 3.859196155443021858e+00 4.078119584860793623e+00
1.047197551196597631e+00 1.575153526770451187e-02 3.914314878815333465e+00 4.157903627516718714e+00
1.064650843716540951e+00 1.600934722683019368e-02 3.969406942034645169e+00 4.241130220168324527e+00
1.082104136236484271e+00 1.626544343886078894e-02 4.024489142747694537e+00 4.328016353124199078e+00
1.099557428756427591e+00 1.651974385772283019e-02 4.079578260915994292e+00 4.418796671631741724e+00
1.117010721276370910e+00 1.677216910691712096e-02 4.134691089258630825e+00 4.513702986913719961e+00
1.134464013796314230e+00 1.702263865123809783e-02 4.189844455057992967e+00 4.613016414804223864e+00
1.151917306316257550e+00 1.727105928067956819e-02 4.245055248344551835e+00 4.717258553231235219e+00
1.169370598836200648e+00 1.751734817188130636e-02 4.300340446999850741e+00 4.826550940599770634e+00
1.186823891356144189e+00 1.776142535989330348e-02 4.355717142263411112e+00 4.941166825257221618e+00
1.204277183876087287e+00 1.800321077219883131e-02 4.411202567922583917e+00 5.061460280340185136e+00
1.221730476396030607e+00 1.824262464424850419e-02 4.466814123611340115e+00 5.187804705296940710e+00
1.239183768915973927e+00 1.847958736510208616e-02 4.522569407856245505e+00 5.320607856459903751e+00
1.256637061435917246e+00 1.871402010432454341e-02 4.578486240970269350e+00 5.460296456465810522e+00
1.274090353955860566e+00 1.894584358250185965e-02 4.634582700249547216e+00 5.607363019593230469e+00
1.291543646475803886e+00 1.917498168858049190e-02 4.690877145781318092e+00 5.762252566772927409e+00
1.308996938995747206e+00 1.940135571996782354e-02 4.747388255062669593e+00 5.925595238082212113e+00
1.326450231515690303e+00 1.962486007390258635e-02 4.804135055220813300e+00 6.098746783047566566e+00
1.343903524035633845e+00 1.984541519902766060e-02 4.861136955426811568e+00 6.281741207867802324e+00
1.361356816555576943e+00 2.006294520085747171e-02 4.918413786950922351e+00 6.475225382047708145e+00
1.378810109075520263e+00 2.027737940247929457e-02 4.975985835208988739e+00 6.679850846306210954e+00
1.396263401595463582e+00 2.048863532255131015e-02 5.033873884804782151e+00 6.896875150367655749e+00
1.413716694115406902e+00 2.069664743944339344e-02 5.092099257640444243e+00 7.126733341840259861e+00
1.431169986635350000e+00 2.090148718511212339e-02 5.150683857230880847e+00 7.365532270304509410e+00
1.448623279155293542e+00 2.110330100115132002e-02 5.209650218334077820e+00 7.610829675208452549e+00
1.466076571675236861e+00 2.130224319198423255e-02 5.269021551343584520e+00 7.862304920071617964e+00
1.483529864195180181e+00 2.149845117776813183e-02 5.328821799447997165e+00 8.120588579461959000e+00
1.500983156715123279e+00 2.169205730277482327e-02 5.389075693292251223e+00 8.385912241440136583e+00
1.518436449235066599e+00 2.188318747346879728e-02 5.449808807996000759e+00 8.658598018506399541e+00
1.535889741755009918e+00 2.207196083287980490e-02 5.511047631852092898e+00 8.939028161667723182e+00
1.553343034274953460e+00 2.225849092176653693e-02 5.572819632368315901e+00 9.227578758527091196e+00
1.570796326794896558e+00 2.244288597673381111e-02 5.635153328114054894e+00 9.524657076557494051e+00
1.588249619314839878e+00 2.262524922244884065e-02 5.698078371873591230e+00 9.830704358478678628e+00
1.605702911834782975e+00 2.280567930768474458e-02 5.761625634511041483e+00 1.014618867292113435e+01
1.623156204354726295e+00 2.298427062686154293e-02 5.825827295150991958e+00 1.047161162911768884e+01
1.640609496874669837e+00 2.316111359347747256e-02 5.890716942954058233e+00 1.080751344117670065e+01
1.658062789394613157e+00 2.333629496367869635e-02 5.956329686114156807e+00 1.115447177468045226e+01
1.675516081914556255e+00 2.350989804788322646e-02 6.022702267861547831e+00 1.151311050853434814e+01
1.692969374434499574e+00 2.368200299885991553e-02 6.089873193465312085e+00 1.188409795572991356e+01
1.710422666954442894e+00 2.385268699020352823e-02 6.157882870063576597e+00 1.226815764109695728e+01
1.727875959474386436e+00 2.402202446039418404e-02 6.226773759465221048e+00 1.266606799751423118e+01
1.745329251994329534e+00 2.419008727548617455e-02 6.296590543836837028e+00 1.307867251999780933e+01
1.762782544514272853e+00 2.435694493330104599e-02 6.367380307537970019e+00 1.350688225127696995e+01
1.780235837034215951e+00 2.452266471067117773e-02 6.439192737051578241e+00 1.395168645204199720e+01
1.797689129554159271e+00 2.468731184012400159e-02 6.512080341091578184e+00 1.441415756702116724e+01
1.815142422074102813e+00 2.485094963793630166e-02 6.586098693319216046e+00 1.489546362165227578e+01
1.832595714594046132e+00 2.501363966494670951e-02 6.661306700515104318e+00 1.539687501048586782e+01
1.850049007113989230e+00 2.517544183193161367e-02 6.737766899536294929e+00 1.591978054734603099e+01
1.867502299633932550e+00 2.533641455359239916e-02 6.815545786938631778e+00 1.646569564329182001e+01
1.884955592153875870e+00 2.549661483008808932e-02 6.894714185763649361e+00 1.703628403093703625e+01
1.902408884673818967e+00 2.565609839867761741e-02 6.975347654675294606e+00 1.763336760129732284e+01
1.919862177193762509e+00 2.581491979508916332e-02 7.057526945382878836e+00 1.825895539346463181e+01
1.937315469713705829e+00 2.597313250015030953e-02 7.141338515100524198e+00 1.891525685640561960e+01
1.954768762233649149e+00 2.613078899235030117e-02 7.226875102317370292e+00 1.960471858369343678e+01
1.972222054753592246e+00 2.628794087843009872e-02 7.314236378695306406e+00 2.033004635554599204e+01
1.989675347273535566e+00 2.644463895362319031e-02 7.403529683913252946e+00 2.109424876282504613e+01
2.007128639793478886e+00 2.660093330357365601e-02 7.494870857212161397e+00 2.190067325013738397e+01
2.024581932313422428e+00 2.675687338544766730e-02 7.588385190887294129e+00 2.275305926058829442e+01
2.042035224833365525e+00 2.691250809557662119e-02 7.684208510424651806e+00 2.365559607095398675e+01
2.059488517353308623e+00 2.706788587391192533e-02 7.782488421507887111e+00 2.461298772149815761e+01
2.076941809873252165e+00 2.722305474490519309e-02 7.883385739045747798e+00 2.563054268212233566e+01
2.094395102393195263e+00 2.737806243259685232e-02 7.987076140917100275e+00 2.671426002032274738e+01
2.111848394913138804e+00 2.753295639745101386e-02 8.093752088201711103e+00 2.787095907541168316e+01
2.129301687433081902e+00 2.768778393741608279e-02 8.203625063372129489e+00 2.910840968921477057e+01
2.146754979953025444e+00 2.784259224584216541e-02 8.316928192988347845e+00 3.043551094380957522e+01
2.164208272472968542e+00 2.799742848182969202e-02 8.433919338019400413e+00 3.186249892221362856e+01
2.181661564992911639e+00 2.815233985936433855e-02 8.554884752799427616e+00 3.340120005989446383e+01
2.199114857512855181e+00 2.830737368909566967e-02 8.680143444871767144e+00 3.506536014717282512e+01
2.216568150032798723e+00 2.846257748877334404e-02 8.810051416055895146e+00 3.687074375319896546e+01
2.234021442552741821e+00 2.861799901781495598e-02 8.944966199508790794e+00 3.882371333115313661e+01
2.251474735072684918e+00 2.877368638403026910e-02 9.084630002364580292e+00 4.074813533402872423e+01
2.268928027592628460e+00 2.892968809779633554e-02 9.228740127144046568e+00 4.262629105710843902e+01
2.286381320112572002e+00 2.908605315552164478e-02 9.377022229695990418e+00 4.446148622086239754e+01
2.303834612632515100e+00 2.924283112730532638e-02 9.529174478492773659e+00 4.624008429194647363e+01
2.321287905152458197e+00 2.940007221470304632e-02 9.684912704038536546e+00 4.796173646642078836e+01
2.338741197672401295e+00 2.955782736865257901e-02 9.843944109977783796e+00 4.961791208095694827e+01
2.356194490192344837e+00 2.971614833440274286e-02 1.000598503424552099e+01 5.120544381079901797e+01
2.373647782712288379e+00 2.987508778448615468e-02 1.017073095094696100e+01 5.271146946708621073e+01
2.391101075232231477e+00 3.003469937127063727e-02 1.033789755391839194e+01 5.413614546319413279e+01
2.408554367752174574e+00 3.019503785830180212e-02 1.050719556526449239e+01 5.547162590096328216e+01
2.426007660272118116e+00 3.035615919637027135e-02 1.067833212862476167e+01 5.671046072543700944e+01
2.443460952792061214e+00 3.051812064626522464e-02 1.085101722942705926e+01 5.784737680745767108e+01
2.460914245312004311e+00 3.068098088428171041e-02 1.102495388745166238e+01 5.887390493266343583e+01
2.478367537831947853e+00 3.084480011848136569e-02 1.119985807633998043e+01 5.978852550730120896e+01
2.495820830351891395e+00 3.100964022306375995e-02 1.137543202804857145e+01 6.058081431750935053e+01
2.513274122871834493e+00 3.117556485546405312e-02 1.155140178704323262e+01 6.125363543408695222e+01
2.530727415391777591e+00 3.134263961627949124e-02 1.172746283393769140e+01 6.179118180033766805e+01
2.548180707911721132e+00 3.151093217693130832e-02 1.190330415438382339e+01 6.218613324534348408e+01
2.565634000431664674e+00 3.168051246114456099e-02 1.207864764207925390e+01 6.244570865157459849e+01
2.583087292951607772e+00 3.185145279462926055e-02 1.225321438009955877e+01 6.256579769656551804e+01
2.600540585471550870e+00 3.202382810369958088e-02 1.242669702215268757e+01 6.253262845542928261e+01
2.617993877991494411e+00 3.219771610050825572e-02 1.259883464728926228e+01 6.236006841975966353e+01
2.635447170511437509e+00 3.237319749280186121e-02 1.276934084681919401e+01 6.203654273071468594e+01
2.652900463031380607e+00 3.255035622264274703e-02 1.293790188118933671e+01 6.155006094340934197e+01
2.670353755551324149e+00 3.272927968413669869e-02 1.310420059498406609e+01 6.089787460119161722e+01
2.687807048071267690e+00 3.291005901968863806e-02 1.326794634644434723e+01 6.008899850749328664e+01
2.705260340591210788e+00 3.309278936256617593e-02 1.342887932744188895e+01 5.913494025099734586e+01
2.722713633111153886e+00 3.327757020861174531e-02 1.358673118894959408e+01 5.803336373542637716e+01
2.740166925631096984e+00 3.346450567693288330e-02 1.374119775242670016e+01 5.677241493921188464e+01
2.757620218151040525e+00 3.365370484554600777e-02 1.389195910984388149e+01 5.534830379901474373e+01
2.775073510670984067e+00 3.384528247592016870e-02 1.403869109757730449e+01 5.376214973271971331e+01
2.792526803190927165e+00 3.403935896420110657e-02 1.418115882965346231e+01 5.205054858958310859e+01
2.809980095710870263e+00 3.423606013631590866e-02 1.431907002023754849e+01 5.019695544557493605e+01
2.827433388230813804e+00 3.443552220056014801e-02 1.445232854413533374e+01 4.827724951044012158e+01
2.844886680750756902e+00 3.463788308645465719e-02 1.458094892417246236e+01 4.633818397362360031e+01
2.862339973270700000e+00 3.484324985661655522e-02 1.470504755542696529e+01 4.442968725471490643e+01
2.879793265790643542e+00 3.505163325241627409e-02 1.482472273177678979e+01 4.256940195388305881e+01
2.897246558310587083e+00 3.526299627262308167e-02 1.494000921267691417e+01 4.074461760292045653e+01
2.914699850830530625e+00 3.547730781125430638e-02 1.505102278976535324e+01 3.898221928233676437e+01
2.932153143350473723e+00 3.569453527438955914e-02 1.515786160198403998e+01 3.727539570636368182e+01
2.949606435870416821e+00 3.591465517306588473e-02 1.526056101206556548e+01 3.559993037605454447e+01
2.967059728390360362e+00 3.613764552790642987e-02 1.535924287493621598e+01 3.398529726241449822e+01
2.984513020910303460e+00 3.636346912819136273e-02 1.545398772952964173e+01 3.241879543314873047e+01
3.001966313430246558e+00 3.659209388620254105e-02 1.554487043848438788e+01 3.089691484180542957e+01
3.019419605950190100e+00 3.682349773745002830e-02 1.563215809572493775e+01 2.948296777330686425e+01
3.036872898470133197e+00 3.705766129025601235e-02 1.571613902735010626e+01 2.818235334345783372e+01
3.054326190990076295e+00 3.729455449638284514e-02 1.579707803679296596e+01 2.698684080676085273e+01
3.071779483510019837e+00 3.753413552207109788e-02 1.587521100442079103e+01 2.588638528301706643e+01
3.089232776029963379e+00 3.777637367595118589e-02 1.595074817174605997e+01 2.486962343283120092e+01
3.106686068549906921e+00 3.802124734211274198e-02 1.602387803377265740e+01 2.392711327660114051e+01
3.124139361069850018e+00 3.826873025540843132e-02 1.609477021763120064e+01 2.305196335041594935e+01
3.141592653589793116e+00 3.851879373383140792e-02 1.616357793493605044e+01 2.223793150835016519e+01
3.159045946109736214e+00 3.877141172562575955e-02 1.623044004840831178e+01 2.147910203293985987e+01
3.176499238629679756e+00 3.902655820880143733e-02 1.629548282512371316e+01 2.077048912593459562e+01
3.193952531149622853e+00 3.928420297023221125e-02 1.635882143459173221e+01 2.010801610032035924e+01
3.211405823669565951e+00 3.954431337874291658e-02 1.642056123008456581e+01 1.948791857326344612e+01
3.228859116189509493e+00 3.980685962901655411e-02 1.648079883875958274e+01 1.890645762539306318e+01
3.246312408709452590e+00 4.007181530580376100e-02 1.653962310396243396e+01 1.836026288661206252e+01
3.263765701229396576e+00 4.033915467449970815e-02 1.659711594756958064e+01 1.784651838144738178e+01
3.281218993749339674e+00 4.060885098247939140e-02 1.665335306142196004e+01 1.736279816276868004e+01
3.298672286269282772e+00 4.088087649252192951e-02 1.670840452292175371e+01 1.690690862362087543e+01
3.316125578789226314e+00 4.115520296659732485e-02 1.676233540251394771e+01 1.647685472799995665e+01
3.333578871309169411e+00 4.143180190089248982e-02 1.681520617301429610e+01 1.607079414016817154e+01
3.351032163829112509e+00 4.171064452737321959e-02 1.686707322027902123e+01 1.568707939268847085e+01
3.368485456349056051e+00 4.199170188215161498e-02 1.691798914889771410e+01 1.532418762989197170e+01
3.385938748868999149e+00 4.227494505185708934e-02 1.696800319010287694e+01 1.498073919313862490e+01
3.403392041388942246e+00 4.256034522911378987e-02 1.701716143371087853e+01 1.465545283320983749e+01
3.420845333908885788e+00 4.284787371254059063e-02 1.706550717513505333e+01 1.434718027460216661e+01
3.438298626428828886e+00 4.313750190675111340e-02 1.711308106657886796e+01 1.405484474931449590e+01
