# angles(rad), pulling distance(m),                                     elastic band force(n), cable force(n)
0.000000000000000000e+00 2.139478543038016134e-04 6.009323177855462050e-02 8.439431461797371192e-02
1.745329251994329547e-02 4.294778891046342577e-04 1.193316019319317217e-01 1.639912880998596334e-01
3.490658503988659095e-02 6.465659407694162404e-04 1.777313999327322924e-01 2.390614724042621764e-01
5.235987755982988295e-02 8.651890349929281920e-04 2.353313107637059476e-01 3.100098496883279542e-01
6.981317007977318190e-02 1.085312528046675348e-03 2.921752088920815948e-01 3.772513687542453642e-01
8.726646259971647390e-02 1.306909420658342990e-03 3.482994241877662711e-01 4.410718859838368422e-01
1.047197551196597659e-01 1.529962855289998492e-03 4.037373461580449630e-01 5.017264031320280981e-01
1.221730476396030718e-01 1.754449588142012245e-03 4.585221167390430841e-01 5.594991884981855845e-01
1.396263401595463638e-01 1.980334978963369397e-03 5.126856055102861909e-01 6.146666000900320448e-01
1.570796326794896558e-01 2.207593415398589106e-03 5.662578707072505324e-01 6.674277376726648336e-01
1.745329251994329478e-01 2.436204480882666126e-03 6.192675559221221260e-01 7.179700189425228807e-01
1.919862177193762398e-01 2.666144411481339953e-03 6.717421615772908305e-01 7.664915993264699301e-01
2.094395102393195318e-01 2.897386808814507615e-03 7.237080790841143862e-01 8.131760172534870934e-01
2.268928027592628516e-01 3.129905030757517293e-03 7.751906225336850920e-01 8.581861794055833936e-01
2.443460952792061436e-01 3.363672473869214977e-03 8.262140840229272865e-01 9.016718054675912919e-01
2.617993877991494078e-01 3.598662573391947939e-03 8.768018574068198179e-01 9.437728175603677938e-01
2.792526803190927276e-01 3.834848803251564298e-03 9.269764675215211858e-01 9.846188507907588372e-01
2.967059728390360474e-01 4.072204738330191531e-03 9.767596559651237076e-01 1.024331032651700557e+00
3.141592653589793116e-01 4.310704244302905434e-03 1.026172419537105140e+00 1.063021387484053060e+00
3.316125578789225758e-01 4.550321302892690496e-03 1.075235057358471691e+00 1.100795337829590048e+00
3.490658503988658956e-01 4.791029952615985694e-03 1.123967244883041561e+00 1.137752685914673823e+00
3.665191429188092154e-01 5.032804288782682760e-03 1.172388048088729873e+00 1.173986698862558464e+00
3.839724354387524796e-01 5.275618463496129645e-03 1.220515989741800533e+00 1.209585939747033434e+00
4.014257279586957439e-01 5.519446685653127058e-03 1.268369083286779997e+00 1.244634108700533925e+00
4.188790204786390636e-01 5.764263220943932793e-03 1.315964855576761572e+00 1.279210236621674213e+00
4.363323129985823834e-01 6.010042391852255667e-03 1.363320415782848682e+00 1.313390426682540468e+00
4.537856055185257032e-01 6.256758577655260715e-03 1.410452468991798103e+00 1.347246849671539959e+00
4.712388980384689674e-01 6.504386066886642948e-03 1.457377339865466581e+00 1.380849188021628038e+00
4.886921905584122872e-01 6.752898409360007063e-03 1.504111008301143526e+00 1.414268290516225379e+00
5.061454830783556069e-01 7.002268238328353440e-03 1.550669116417326743e+00 1.447573282486956048e+00
5.235987755982988157e-01 7.252467270479178406e-03 1.597067050810356159e+00 1.480833311139633457e+00
5.410520681182421354e-01 7.503466970748120211e-03 1.643320019362092266e+00 1.514113943055543920e+00
5.585053606381854552e-01 7.755242856815476940e-03 1.689443043037895054e+00 1.547452035420705529e+00
5.759586531581287749e-01 8.007776213482240002e-03 1.735450816937798235e+00 1.580864996489090180e+00
5.934119456780720947e-01 8.261052479849973623e-03 1.781357615977729347e+00 1.614372070224082023e+00
6.108652381980153034e-01 8.515041515930301189e-03 1.827177369913541405e+00 1.648118729425096296e+00
6.283185307179586232e-01 8.769684413923504659e-03 1.872924401535277728e+00 1.682370340924309815e+00
6.457718232379019430e-01 9.024897613182807088e-03 1.918613838414307660e+00 1.717395223285432149e+00
6.632251157578451517e-01 9.280593208441328609e-03 1.964260205760721023e+00 1.753282899250635962e+00
6.806784082777884715e-01 9.536684660295734889e-03 2.009865541848445680e+00 1.789606659328227600e+00
6.981317007977317912e-01 9.793084252303650705e-03 2.055413444913332555e+00 1.825661492165854050e+00
7.155849933176750000e-01 1.004970171935231499e-02 2.100871810670376316e+00 1.860789140281047249e+00
7.330382858376184307e-01 1.030644941899911023e-02 2.146209359498536973e+00 1.894931712447289307e+00
7.504915783575616395e-01 1.056324413417317372e-02 2.191401781388801151e+00 1.928286447960373629e+00
7.679448708775049592e-01 1.081998948016956591e-02 2.236435563503297086e+00 1.961382230494885803e+00
7.853981633974482790e-01 1.107657846597842957e-02 2.281313839252331555e+00 1.995047278146207193e+00
8.028514559173914877e-01 1.133293263743440950e-02 2.326053622380405361e+00 2.029753095463852297e+00
8.203047484373349185e-01 1.158897341485886842e-02 2.370672132758445905e+00 2.065605725432186457e+00
8.377580409572781273e-01 1.184459016779208611e-02 2.415183365356717182e+00 2.102811871860253756e+00
8.552113334772214470e-01 1.209970344022583480e-02 2.459600301290551183e+00 2.141164745429567251e+00
8.726646259971647668e-01 1.235423586867637029e-02 2.503936572764838164e+00 2.180767541493668027e+00
8.901179185171079755e-01 1.260807211894575050e-02 2.548206217045681399e+00 2.222066049729497728e+00
9.075712110370514063e-01 1.286112405297515360e-02 2.592423043017372031e+00 2.264924766881657447e+00
9.250245035569946150e-01 1.311331856762525117e-02 2.636600572637638251e+00 2.309298837369984536e+00
9.424777960769379348e-01 1.336456794812547477e-02 2.680752247526942966e+00 2.355422756783209337e+00
9.599310885968812546e-01 1.361476414710332920e-02 2.724891526888246318e+00 2.403608624470253918e+00
9.773843811168245743e-01 1.386381590994929455e-02 2.769031878747061359e+00 2.453828072515309433e+00
9.948376736367677831e-01 1.411163936804354230e-02 2.813186765840564263e+00 2.506137735584847981e+00
1.012290966156711214e+00 1.435815041578804470e-02 2.857369653116331953e+00 2.560673090394063767e+00
1.029744258676654312e+00 1.460326318273172212e-02 2.901594053932629258e+00 2.617596383235084367e+00
1.047197551196597631e+00 1.484688370743186304e-02 2.945873546193556791e+00 2.677150971801381285e+00
1.064650843716540951e+00 1.508890729243702808e-02 2.990221793533430095e+00 2.739631670563630550e+00
1.082104136236484271e+00 1.532924569834223129e-02 3.034652568083046731e+00 2.805044070694543201e+00
1.099557428756427591e+00 1.556781406094388462e-02 3.079179762286972544e+00 2.873541859636321583e+00
1.117010721276370910e+00 1.580452524367999614e-02 3.123817425256359304e+00 2.945359568456445754e+00
1.134464013796314230e+00 1.603929286510719782e-02 3.168579773160874247e+00 3.020711913065372123e+00
1.151917306316257550e+00 1.627203028280534841e-02 3.213481221121360143e+00 3.099844478151709382e+00
1.169370598836200648e+00 1.650264480266642325e-02 3.258536404435723011e+00 3.183103022455384679e+00
1.186823891356144189e+00 1.673102978414480260e-02 3.303760199806153430e+00 3.270980741856527096e+00
1.204277183876087287e+00 1.695709648903040781e-02 3.349167761092287865e+00 3.363554585499388239e+00
1.221730476396030607e+00 1.718075999543520332e-02 3.394774532762732111e+00 3.461107926747400754e+00
1.239183768915973927e+00 1.740193330502602317e-02 3.440596293340773215e+00 3.564041698585180384e+00
1.256637061435917246e+00 1.762053291142063813e-02 3.486649171175722817e+00 3.672701680066708274e+00
1.274090353955860566e+00 1.783647207756041200e-02 3.532949686215703711e+00 3.787580386789195952e+00
1.291543646475803886e+00 1.804965045031881737e-02 3.579514776613727634e+00 3.909412268170846971e+00
1.308996938995747206e+00 1.825996744430880697e-02 3.626361834707361176e+00 4.038769771194895775e+00
1.326450231515690303e+00 1.846732651773234576e-02 3.673508746944539993e+00 4.176200048428697187e+00
1.343903524035633845e+00 1.867168846828907297e-02 3.720973925338265875e+00 4.321173552205795687e+00
1.361356816555576943e+00 1.887311542534838432e-02 3.768776359456829095e+00 4.472010257730419269e+00
1.378810109075520263e+00 1.907174876375888894e-02 3.816935647144751531e+00 4.627141228861511024e+00
1.396263401595463582e+00 1.926772397656214761e-02 3.865472056393849609e+00 4.786731214279534186e+00
1.413716694115406902e+00 1.946116850711346324e-02 3.914406559387145990e+00 4.951019782037570316e+00
1.431169986635350000e+00 1.965220478809680260e-02 3.963760902847294876e+00 5.120200623307217036e+00
1.448623279155293542e+00 1.984094874101930209e-02 4.013557648921088905e+00 5.294530182323908818e+00
1.466076571675236861e+00 2.002751084650558275e-02 4.063820253441604358e+00 5.474267931013883093e+00
1.483529864195180181e+00 2.021199656264499253e-02 4.114573117504406241e+00 5.659689391653404122e+00
1.500983156715123279e+00 2.039450656750934135e-02 4.165841672571447774e+00 5.851095213918504179e+00
1.518436449235066599e+00 2.057513717031412073e-02 4.217652448657364772e+00 6.048804666332718405e+00
1.535889741755009918e+00 2.075398060879909967e-02 4.270033163501610218e+00 6.253161743242629633e+00
1.553343034274953460e+00 2.093112532581197643e-02 4.323012815449470914e+00 6.464536967026939251e+00
1.570796326794896558e+00 2.110665626175467491e-02 4.376621774765805384e+00 6.683327283772754868e+00
1.588249619314839878e+00 2.128065506864324288e-02 4.430891905318465440e+00 6.909963535564865644e+00
1.605702911834782975e+00 2.145320037207164299e-02 4.485856668546557735e+00 7.144907591302123606e+00
1.623156204354726295e+00 2.162436795920227514e-02 4.541551262166440672e+00 7.388660908013791051e+00
1.640609496874669837e+00 2.179423098853460611e-02 4.598012761489525424e+00 7.641765705015681753e+00
1.658062789394613157e+00 2.196286017604450955e-02 4.655280266275205747e+00 7.904808439877595738e+00
1.675516081914556255e+00 2.213032395482201001e-02 4.713395080981165997e+00 8.178427710363136427e+00
1.692969374434499574e+00 2.229668865824165069e-02 4.772400901080276370e+00 8.463316533545837572e+00
1.710422666954442894e+00 2.246201864358338129e-02 4.832344015754910238e+00 8.760230362476296051e+00
1.727875959474386436e+00 2.262637646638065644e-02 4.893273540756839068e+00 9.069992150923095409e+00
1.745329251994329534e+00 2.278982298019699773e-02 4.955241676468879142e+00 9.393503768407789778e+00
1.762782544514272853e+00 2.295241749878465520e-02 5.018303989012106392e+00 9.731750410189730971e+00
1.780235837034215951e+00 2.311421787997267746e-02 5.082519725335663985e+00 1.008581513050218348e+01
1.797689129554159271e+00 2.327528067494435970e-02 5.147952166478886760e+00 1.045688661991974655e+01
1.815142422074102813e+00 2.343566120130860519e-02 5.214669023647934942e+00 1.084627717346555720e+01
1.832595714594046132e+00 2.359541367975002274e-02 5.282742882856158673e+00 1.125543399230160979e+01
1.850049007113989230e+00 2.375459130048603387e-02 5.352251705087343048e+00 1.168596158760491299e+01
1.867502299633932550e+00 2.391324634699251717e-02 5.423279391403112548e+00 1.213963866568911421e+01
1.884955592153875870e+00 2.407143026034205477e-02 5.495916423416963958e+00 1.261844674151745060e+01
1.902408884673818967e+00 2.422919374871293149e-02 5.570260591496532854e+00 1.312459536542735883e+01
1.919862177193762509e+00 2.438658685445773203e-02 5.646417826390990768e+00 1.366055923103601977e+01
1.937315469713705829e+00 2.454365904762867076e-02 5.724503151692922565e+00 1.422911598061834226e+01
1.954768762233649149e+00 2.470045930023530983e-02 5.804641777260060032e+00 1.483339491506403540e+01
1.972222054753592246e+00 2.485703616261917062e-02 5.886970358419805649e+00 1.547693284816174497e+01
1.989675347273535566e+00 2.501343784788015792e-02 5.971638464346489705e+00 1.616374264802363570e+01
2.007128639793478886e+00 2.516971229172274352e-02 6.058810277713930326e+00 1.689839572520334343e+01
2.024581932313422428e+00 2.532590724751353911e-02 6.148666590153519351e+00 1.768611871665350321e+01
2.042035224833365525e+00 2.548207033299017613e-02 6.241407142153879484e+00 1.853291838643047740e+01
2.059488517353308623e+00 2.563824913317265877e-02 6.337253397082901252e+00 1.944572515401927149e+01
2.076941809873252165e+00 2.579449124065633786e-02 6.436451834152068230e+00 2.043258288376428311e+01
2.094395102393195263e+00 2.595084436038298109e-02 6.539277890971930240e+00 2.150286995083773434e+01
2.111848394913138804e+00 2.610735635254316303e-02 6.646040713013105616e+00 2.266759409705944961e+01
2.129301687433081902e+00 2.626407533232263253e-02 6.757088916242587118e+00 2.393974821257979713e+01
2.146754979953025444e+00 2.642104972343315913e-02 6.872817638136595519e+00 2.533478217195698079e+01
2.164208272472968542e+00 2.657832834863627786e-02 6.993677229099737325e+00 2.687119651973151591e+01
2.181661564992911639e+00 2.673596049866985153e-02 7.120184075346748465e+00 2.857132989299682535e+01
2.199114857512855181e+00 2.689399601272298226e-02 7.252934213528948071e+00 3.046239400178953005e+01
2.216568150032798723e+00 2.705248536449659721e-02 7.392612729489436596e+00 3.257597950809442722e+01
2.234021442552741821e+00 2.721147973463083208e-02 7.539600368321022650e+00 3.485117287290159283e+01
2.251474735072684918e+00 2.737103111347040374e-02 7.693588991321028026e+00 3.712676077505931005e+01
2.268928027592628460e+00 2.753119236933454159e-02 7.854098005647375480e+00 3.935575812349998159e+01
2.286381320112572002e+00 2.769201736650358028e-02 8.020704622426451991e+00 4.154523503340208634e+01
2.303834612632515100e+00 2.785356103406044087e-02 8.192921263745599703e+00 4.367108299487696854e+01
2.321287905152458197e+00 2.801587949763843788e-02 8.370300779362727539e+00 4.573478164730135376e+01
2.338741197672401295e+00 2.817903015359597349e-02 8.552358813540662297e+00 4.771741872686035890e+01
2.356194490192344837e+00 2.834307181373101753e-02 8.738656184267854954e+00 4.962119590468137176e+01
2.373647782712288379e+00 2.850806478945099032e-02 8.928721158914999734e+00 5.142755784891129878e+01
2.391101075232231477e+00 2.867407104913049717e-02 9.122108769237414094e+00 5.313362337630388055e+01
2.408554367752174574e+00 2.884115431769404200e-02 9.318344448113860423e+00 5.472096830822842861e+01
2.426007660272118116e+00 2.900938024560449982e-02 9.516959296536132484e+00 5.618068069532571940e+01
2.443460952792061214e+00 2.917881653170989117e-02 9.717505499406842162e+00 5.750860320643130308e+01
2.460914245312004311e+00 2.934953310067030946e-02 9.919508443342801129e+00 5.868703665247148393e+01
2.478367537831947853e+00 2.952160226059605611e-02 1.012251257028509599e+01 5.971179924629934987e+01
2.495820830351891395e+00 2.969509888369545672e-02 1.032607791566438316e+01 6.057845910093958253e+01
2.513274122871834493e+00 2.987010061183975954e-02 1.052972490974503472e+01 6.126644716895419407e+01
2.530727415391777591e+00 3.004668803937803057e-02 1.073295689684979415e+01 6.176204580543470968e+01
2.548180707911721132e+00 3.022494496988482882e-02 1.093535480215390621e+01 6.208153869307245998e+01
2.565634000431664674e+00 3.040495862245717190e-02 1.113642780942920396e+01 6.219625561584270201e+01
2.583087292951607772e+00 3.058681991772074435e-02 1.133579825060780699e+01 6.213590129389199035e+01
2.600540585471550870e+00 3.077062374979293302e-02 1.153294474111047663e+01 6.185071212166417354e+01
2.617993877991494411e+00 3.095646927515692884e-02 1.172736927508328719e+01 6.134364283372915594e+01
2.635447170511437509e+00 3.114446028544689410e-02 1.191861178349183703e+01 6.062378224115321501e+01
2.652900463031380607e+00 3.133470551494885875e-02 1.210623815681153737e+01 5.969793738990079390e+01
2.670353755551324149e+00 3.152731902429867922e-02 1.228979938673370498e+01 5.856107130129556992e+01
2.687807048071267690e+00 3.172242085295646358e-02 1.246880835344634875e+01 5.720162939639799760e+01
2.705260340591210788e+00 3.192013690733670056e-02 1.264286869657654044e+01 5.565107169405470700e+01
2.722713633111153886e+00 3.212059995445498001e-02 1.281143210479580574e+01 5.386375920146300444e+01
2.740166925631096984e+00 3.232395223354071756e-02 1.297412487166949546e+01 5.189999056383124554e+01
2.757620218151040525e+00 3.253033492941805743e-02 1.313047193957330094e+01 4.973553570512532929e+01
2.775073510670984067e+00 3.273992068585544757e-02 1.328039319812199004e+01 4.749877320214422127e+01
2.792526803190927165e+00 3.295285250976444369e-02 1.342400402241962176e+01 4.526876837016013866e+01
2.809980095710870263e+00 3.316909089918097103e-02 1.356143185893756353e+01 4.309406496894718686e+01
2.827433388230813804e+00 3.338859302972354420e-02 1.369280245888998593e+01 4.097526683699865657e+01
2.844886680750756902e+00 3.361132442473087345e-02 1.381823753938412125e+01 3.890991070169194188e+01
2.862339973270700000e+00 3.383725528432229152e-02 1.393783733412201009e+01 3.689098707599539750e+01
2.879793265790643542e+00 3.406634856216953638e-02 1.405171218192906224e+01 3.492325486766649334e+01
2.897246558310587083e+00 3.429854273269292847e-02 1.415998652411655279e+01 3.301467954226583856e+01
2.914699850830530625e+00 3.453379434892051014e-02 1.426281956309518506e+01 3.117277372194754292e+01
2.932153143350473723e+00 3.477208235300441319e-02 1.436072773398593405e+01 2.950279831542744802e+01
2.949606435870416821e+00 3.501337109888005839e-02 1.445418724924484266e+01 2.799304478278767760e+01
2.967059728390360362e+00 3.525758803473939135e-02 1.454361078507912808e+01 2.662675902519087145e+01
2.984513020910303460e+00 3.550470725283500634e-02 1.462935753486570789e+01 2.538086413811823050e+01
3.001966313430246558e+00 3.575470237794817208e-02 1.471174200859735848e+01 2.424085514678501241e+01
3.019419605950190100e+00 3.600750781991722549e-02 1.479104118487988373e+01 2.319802479697881736e+01
3.036872898470133197e+00 3.626308548762640499e-02 1.486750026240623335e+01 2.223894140234227379e+01
3.054326190990076295e+00 3.652141037352948927e-02 1.494133735674057206e+01 2.135343894634963746e+01
3.071779483510019837e+00 3.678244131081579577e-02 1.501274736454457859e+01 2.053512157614209244e+01
3.089232776029963379e+00 3.704613075145274381e-02 1.508190516251443114e+01 1.977764729050510084e+01
3.106686068549906921e+00 3.731243161225029220e-02 1.514896827498392895e+01 1.907498459035128846e+01
3.124139361069850018e+00 3.758130428388629235e-02 1.521407911406562974e+01 1.842138605877433832e+01
3.141592653589793116e+00 3.785271354733846239e-02 1.527736686849098824e+01 1.781203468041465854e+01
3.159045946109736214e+00 3.812661667146807765e-02 1.533894909365030834e+01 1.724344364077989056e+01
3.176499238629679756e+00 3.840296514134793060e-02 1.539893308149966700e+01 1.671240327936918035e+01
3.193952531149622853e+00 3.868171680178595501e-02 1.545741706847383057e+01 1.621535414473059689e+01
3.211405823669565951e+00 3.896283747183455076e-02 1.551449120742973165e+01 1.574904162774437388e+01
3.228859116189509493e+00 3.924629173224235268e-02 1.557023843575145783e+01 1.531107057365777102e+01
3.246312408709452590e+00 3.953203759685378765e-02 1.562473529844160502e+01 1.489958665345820243e+01
3.263765701229396576e+00 3.982002787417608658e-02 1.567805251189749960e+01 1.451281758748499051e+01
3.281218993749339674e+00 4.011021668893902797e-02 1.573025565356851452e+01 1.414887002235633418e+01
3.298672286269282772e+00 4.040256134479196237e-02 1.578140556648801862e+01 1.380592229603360543e+01
3.316125578789226314e+00 4.069702228815069017e-02 1.583155890858396830e+01 1.348235831886017166e+01
3.333578871309169411e+00 4.099356154371807531e-02 1.588076844648858099e+01 1.317675926795246077e+01
3.351032163829112509e+00 4.129214058866736980e-02 1.592908352377921055e+01 1.288795906208064501e+01
3.368485456349056051e+00 4.159272020075878429e-02 1.597655024065268137e+01 1.261486734930649511e+01
3.385938748868999149e+00 4.189526045833948803e-02 1.602321187732427887e+01 1.235652565563533223e+01
3.403392041388942246e+00 4.219972074034361587e-02 1.606910901316635432e+01 1.211202450420872445e+01
3.420845333908885788e+00 4.250605972629225432e-02 1.611427983607832104e+01 1.188055249604071228e+01
3.438298626428828886e+00 4.281423539629346242e-02 1.615876033553356805e+01 1.166136396003177289e+01
