# angles(rad), pulling distance(m),                                     elastic band force(n), cable force(n)
0.000000000000000000e+00 2.265175842526920974e-04 7.488001517482271996e-02 1.237655939842348674e-01
1.745329251994329547e-02 4.557863770701634128e-04 1.498250070661500954e-01 2.448792485384215234e-01
3.490658503988659095e-02 6.877427096691122966e-04 2.248132675823183435e-01 3.633950340580250904e-01
5.235987755982988295e-02 9.223083922590400753e-04 2.998229041766345415e-01 4.793882642299940877e-01
6.981317007977318190e-02 1.159380541152338004e-03 3.748318603419056871e-01 5.929786926254984047e-01
8.726646259971647390e-02 1.398881313321715834e-03 4.498179975885554516e-01 7.041754771323708306e-01
1.047197551196597659e-01 1.640740858351061142e-03 5.247591159391532534e-01 8.129932396999185462e-01
1.221730476396030718e-01 1.884884419235151234e-03 5.996329539284142029e-01 9.194758297715924789e-01
1.396263401595463638e-01 2.131234079246876936e-03 6.744171886031988805e-01 1.023662328147918021e+00
1.570796326794896558e-01 2.379704080972302061e-03 7.490894355225142798e-01 1.125612567021284871e+00
1.745329251994329478e-01 2.630202165682841032e-03 8.236272487575123646e-01 1.225386096546069004e+00
1.919862177193762398e-01 2.882642795057831133e-03 8.980081799989205749e-01 1.322978096990503172e+00
2.094395102393195318e-01 3.136950030289551144e-03 9.722101079611081831e-01 1.418360439672670115e+00
2.268928027592628516e-01 3.393050807080532066e-03 1.046211352454833099e+00 1.511532746117136616e+00
2.443460952792061436e-01 3.650869533324837147e-03 1.119990655078550557e+00 1.602523809664524901e+00
2.617993877991494078e-01 3.910327936473292042e-03 1.193526589674844818e+00 1.691351911756152626e+00
2.792526803190927276e-01 4.171345063533483076e-03 1.266796880421379390e+00 1.778016959857835033e+00
2.967059728390360474e-01 4.433837281069758114e-03 1.339778499147067148e+00 1.862516239897908266e+00
3.141592653589793116e-01 4.697719572425139781e-03 1.412448817337475848e+00 1.944865349932615395e+00
3.316125578789225758e-01 4.962909897946221442e-03 1.484786156520372824e+00 2.025064066859131096e+00
3.490658503988658956e-01 5.229327177554045879e-03 1.556768941138608753e+00 2.103102388015084756e+00
3.665191429188092154e-01 5.496890462081339274e-03 1.628374807777689615e+00 2.178945992724092395e+00
3.839724354387524796e-01 5.765518933272514683e-03 1.699581563889891012e+00 2.252584943361671588e+00
4.014257279586957439e-01 6.035131903783671169e-03 1.770368279166326442e+00 2.324045372783617225e+00
4.188790204786390636e-01 6.305648817182593797e-03 1.840713451340529883e+00 2.393294064888540351e+00
4.363323129985823834e-01 6.576989247948754509e-03 1.910593683734899351e+00 2.460243949890188464e+00
4.537856055185257032e-01 6.849072917606089522e-03 1.979985446818405714e+00 2.524860849007381614e+00
4.712388980384689674e-01 7.121819840925478276e-03 2.048866389198589211e+00 2.587157464170940724e+00
4.886921905584122872e-01 7.395150403729229376e-03 2.117216323272712586e+00 2.647190175733290296e+00
5.061454830783556069e-01 7.668985346766121584e-03 2.185014028776414818e+00 2.704894707767137252e+00
5.235987755982988157e-01 7.943244929743787514e-03 2.252235246427359616e+00 2.760122254571326206e+00
5.410520681182421354e-01 8.217847727223059895e-03 2.318854781673849175e+00 2.812808705469799442e+00
5.585053606381854552e-01 8.492710832184032291e-03 2.384860736663222625e+00 2.863516557860108946e+00
5.759586531581287749e-01 8.767752582030193323e-03 2.450263088752814955e+00 2.913248067472988811e+00
5.934119456780720947e-01 9.042893903206845885e-03 2.515090886431574191e+00 2.962982848813788372e+00
6.108652381980153034e-01 9.318055512425217277e-03 2.579373952474675047e+00 3.012957850620698874e+00
6.283185307179586232e-01 9.593155361898935210e-03 2.643140291408576648e+00 3.063312829764236689e+00
6.457718232379019430e-01 9.868114899961049138e-03 2.706417360313670972e+00 3.114170161207932885e+00
6.632251157578451517e-01 1.014286350065693107e-02 2.769231609269150240e+00 3.165570330102551289e+00
6.806784082777884715e-01 1.041731724745177147e-02 2.831608601368203360e+00 3.217795883967072612e+00
6.981317007977317912e-01 1.069137586711310824e-02 2.893573133207944181e+00 3.271177983105342690e+00
7.155849933176750000e-01 1.096496625866506293e-02 2.955149257735085300e+00 3.325530506725230317e+00
7.330382858376184307e-01 1.123802088952565413e-02 3.016360342583249032e+00 3.380911143689142140e+00
7.504915783575616395e-01 1.151044262466922700e-02 3.077229121634419418e+00 3.437816358446543319e+00
7.679448708775049592e-01 1.178216118147221332e-02 3.137777743795413965e+00 3.496046079252527417e+00
7.853981633974482790e-01 1.205310791465038014e-02 3.198027816523568490e+00 3.555706434842025754e+00
8.028514559173914877e-01 1.232317560034335360e-02 3.258000446931816896e+00 3.617442349172405702e+00
8.203047484373349185e-01 1.259228653583781277e-02 3.317716286309832618e+00 3.681013788813204179e+00
8.377580409572781273e-01 1.286037731697041789e-02 3.377195564374280146e+00 3.746364444215606770e+00
8.552113334772214470e-01 1.312736937854191467e-02 3.436458128656869615e+00 3.813845991436326077e+00
8.726646259971647668e-01 1.339316676772847950e-02 3.495523479971657466e+00 3.883866636265113748e+00
8.901179185171079755e-01 1.365768633054938001e-02 3.554410803462240143e+00 3.956413215147007278e+00
9.075712110370514063e-01 1.392085291703332867e-02 3.613139005713707164e+00 4.031536851338862526e+00
9.250245035569946150e-01 1.418259070542371783e-02 3.671726741748641221e+00 4.109421082467511255e+00
9.424777960769379348e-01 1.444282470769123715e-02 3.730192448984991138e+00 4.190235283577699477e+00
9.599310885968812546e-01 1.470147604820424420e-02 3.788554375632822158e+00 4.274235195020840372e+00
9.773843811168245743e-01 1.495844851455847661e-02 3.846830608733436296e+00 4.361922513210019225e+00
9.948376736367677831e-01 1.521365980280257879e-02 3.905039105580045966e+00 4.453299421568514660e+00
1.012290966156711214e+00 1.546703252392694558e-02 3.963197717301929046e+00 4.548518013201579002e+00
1.029744258676654312e+00 1.571848876415445420e-02 4.021324221117910547e+00 4.647836885507892646e+00
1.047197551196597631e+00 1.596795047580794671e-02 4.079436343552443667e+00 4.751524847021278752e+00
1.064650843716540951e+00 1.621533938294936542e-02 4.137551790033161758e+00 4.859871697428548742e+00
1.082104136236484271e+00 1.646057731706010788e-02 4.195688271285775706e+00 4.973181522873100668e+00
1.099557428756427591e+00 1.670358584940760671e-02 4.253863528850024167e+00 5.091788424945793423e+00
1.117010721276370910e+00 1.694428104782621028e-02 4.312095365468014307e+00 5.216166222942713482e+00
1.134464013796314230e+00 1.718256947149146216e-02 4.370401667994242345e+00 5.346922815125488171e+00
1.151917306316257550e+00 1.741837146692081992e-02 4.428800439757401008e+00 5.484188240117184421e+00
1.169370598836200648e+00 1.765160949396426746e-02 4.487309824782684586e+00 5.628364756683637893e+00
1.186823891356144189e+00 1.788220521664461715e-02 4.545948138602314614e+00 5.779958328382288180e+00
1.204277183876087287e+00 1.811008136028467025e-02 4.604733897549131427e+00 5.939471604871777721e+00
1.221730476396030607e+00 1.833516089853624159e-02 4.663685846497942045e+00 6.107471431471100942e+00
1.239183768915973927e+00 1.855736830789135247e-02 4.722822993836916616e+00 6.284540197219232738e+00
1.256637061435917246e+00 1.877662172793451503e-02 4.782164638760207254e+00 6.471541376690097103e+00
1.274090353955860566e+00 1.899281876025302532e-02 4.841730408283627440e+00 6.669874107464014656e+00
1.291543646475803886e+00 1.920588208378616948e-02 4.901540289824981578e+00 6.879657635186590348e+00
1.308996938995747206e+00 1.941573573103674150e-02 4.961614666025930376e+00 7.101756626966890806e+00
1.326450231515690303e+00 1.962232112684035579e-02 5.021974355671514623e+00 7.336549912864307466e+00
1.343903524035633845e+00 1.982566701640404647e-02 5.082640648508795600e+00 7.581785071503026607e+00
1.361356816555576943e+00 2.002591815102932465e-02 5.143635349940272050e+00 7.833526212699699620e+00
1.378810109075520263e+00 2.022322695633611486e-02 5.204980823831260928e+00 8.091428427002117729e+00
1.396263401595463582e+00 2.041773646628896460e-02 5.266700035700936589e+00 8.355801611865960155e+00
1.413716694115406902e+00 2.060958286223295299e-02 5.328816605515528160e+00 8.626896717994664954e+00
1.431169986635350000e+00 2.079889493140662030e-02 5.391354856386808336e+00 8.905029246590475012e+00
1.448623279155293542e+00 2.098579492677763933e-02 5.454339868486579590e+00 9.190520896774813764e+00
1.466076571675236861e+00 2.117039908693817141e-02 5.517797540731357309e+00 9.483713355871394413e+00
1.483529864195180181e+00 2.135281801012877193e-02 5.581754650264322493e+00 9.784974258950303039e+00
1.500983156715123279e+00 2.153315712342756746e-02 5.646238918205117585e+00 1.009469262100763665e+01
1.518436449235066599e+00 2.171151703288242557e-02 5.711279083978610061e+00 1.041328568555547029e+01
1.535889741755009918e+00 2.188799387979862426e-02 5.776904980136868595e+00 1.074119843388339746e+01
1.553343034274953460e+00 2.206267967407192845e-02 5.843147613027346310e+00 1.107890552476911949e+01
1.570796326794896558e+00 2.223566255575551778e-02 5.910039253348518429e+00 1.142691739700940268e+01
1.588249619314839878e+00 2.240702711338994971e-02 5.977613532233968741e+00 1.178577791909340355e+01
1.605702911834782975e+00 2.257685458719894955e-02 6.045905543452889219e+00 1.215607345329717681e+01
1.623156204354726295e+00 2.274522314577997681e-02 6.114951954829923153e+00 1.253843032755993647e+01
1.640609496874669837e+00 2.291220806701642701e-02 6.184791130606837939e+00 1.293352452771236827e+01
1.658062789394613157e+00 2.307788196597345548e-02 6.255463264279900848e+00 1.334208160679506783e+01
1.675516081914556255e+00 2.324231496268915759e-02 6.327010522091836009e+00 1.376488484806967527e+01
1.692969374434499574e+00 2.340557487121651750e-02 6.399477199893594204e+00 1.420277815072617322e+01
1.710422666954442894e+00 2.356772735185998918e-02 6.472909894880281456e+00 1.465667426427329012e+01
1.727875959474386436e+00 2.372883607464469635e-02 6.547357693835199832e+00 1.512755985062188024e+01
1.745329251994329534e+00 2.388896285143152567e-02 6.622872379772595686e+00 1.561650517788724457e+01
1.762782544514272853e+00 2.404816778578663591e-02 6.699508659177040748e+00 1.612467036769045237e+01
1.780235837034215951e+00 2.420650938113373674e-02 6.777324412398301412e+00 1.665331850482924025e+01
1.797689129554159271e+00 2.436404468616855737e-02 6.856380970177037071e+00 1.720382228612218256e+01
1.815142422074102813e+00 2.452082937755834663e-02 6.936743419749552331e+00 1.777768251242060060e+01
1.832595714594046132e+00 2.467691790555410006e-02 7.018480944509401631e+00 1.837653501332183126e+01
1.850049007113989230e+00 2.483236355463399464e-02 7.101667201789053863e+00 1.900217595215119104e+01
1.867502299633932550e+00 2.498721858663894430e-02 7.186380743965023576e+00 1.965657041829281582e+01
1.884955592153875870e+00 2.514153429091038963e-02 7.272705488782925443e+00 2.034188446402709971e+01
1.902408884673818967e+00 2.529536111320104114e-02 7.360731245676212176e+00 2.106049938301604030e+01
1.919862177193762509e+00 2.544874871283829554e-02 7.450554308934018266e+00 2.181504934491990255e+01
1.937315469713705829e+00 2.560174606340237871e-02 7.542278126263194160e+00 2.260844839955062113e+01
1.954768762233649149e+00 2.575440153121319464e-02 7.636014050109189988e+00 2.344393036661601926e+01
1.972222054753592246e+00 2.590676294140834696e-02 7.731882195859698825e+00 2.432509676594037984e+01
1.989675347273535566e+00 2.605887768042360400e-02 7.830012411737080846e+00 2.525596182396462908e+01
2.007128639793478886e+00 2.621079273525503753e-02 7.930545391541072853e+00 2.624102530743630268e+01
2.024581932313422428e+00 2.636255480642936064e-02 8.033633943801717692e+00 2.728533177789820030e+01
2.042035224833365525e+00 2.651421034415588421e-02 8.139444455380454357e+00 2.839457083801195481e+01
2.059488517353308623e+00 2.666580564616208293e-02 8.248158579919003586e+00 2.957516912477783322e+01
2.076941809873252165e+00 2.681738691621944268e-02 8.359975195225374023e+00 3.083442070453656569e+01
2.094395102393195263e+00 2.696900033050411011e-02 8.475112683758863952e+00 3.218063500681292055e+01
2.111848394913138804e+00 2.712069212756103992e-02 8.593811602376733916e+00 3.362331265760536780e+01
2.129301687433081902e+00 2.727250864698939348e-02 8.716337844807894086e+00 3.517338323609836692e+01
2.146754979953025444e+00 2.742449643881297514e-02 8.842985399728126694e+00 3.684317225856010225e+01
2.164208272472968542e+00 2.757670229791372302e-02 8.974055418162359743e+00 3.863943267485513644e+01
2.181661564992911639e+00 2.772917336630151969e-02 9.109651015952261233e+00 4.050698234840638889e+01
2.199114857512855181e+00 2.788195719016602070e-02 9.249806631987976147e+00 4.242636144083104455e+01
2.216568150032798723e+00 2.803510179686931683e-02 9.394260026836024124e+00 4.430560050968414032e+01
2.234021442552741821e+00 2.818865578627917715e-02 9.542742409152682015e+00 4.613781550680523935e+01
2.251474735072684918e+00 2.834266838264708210e-02 9.694962024743594142e+00 4.791047704467172963e+01
2.268928027592628460e+00 2.849718955406339849e-02 9.850624954565478930e+00 4.961705658032303035e+01
2.286381320112572002e+00 2.865227005512615763e-02 1.000943778036811693e+01 5.125167534610438480e+01
2.303834612632515100e+00 2.880796155663866223e-02 1.017111082154313628e+01 5.280938274318643977e+01
2.321287905152458197e+00 2.896431670072651537e-02 1.033536103956566343e+01 5.428619934424310856e+01
2.338741197672401295e+00 2.912138922445876854e-02 1.050189849310112677e+01 5.567362740380652752e+01
2.356194490192344837e+00 2.927923404193282300e-02 1.067043088695276687e+01 5.696459629098220034e+01
2.373647782712288379e+00 2.943790735662812907e-02 1.084067791200068598e+01 5.815701170561783329e+01
2.391101075232231477e+00 2.959746677454221445e-02 1.101234645852994909e+01 5.924042388492659938e+01
2.408554367752174574e+00 2.975797140892744164e-02 1.118513554921643305e+01 6.020603106436076501e+01
2.426007660272118116e+00 2.991948202260713216e-02 1.135877598005075129e+01 6.105923041188160738e+01
2.443460952792061214e+00 3.008206113327149822e-02 1.153296413293973899e+01 6.178240585283388953e+01
2.460914245312004311e+00 3.024577318119460803e-02 1.170740442819142224e+01 6.237302357990652979e+01
2.478367537831947853e+00 3.041068464477292635e-02 1.188181481247898930e+01 6.283104408002535024e+01
2.495820830351891395e+00 3.057686423000436152e-02 1.205592186791572473e+01 6.315520206873947728e+01
2.513274122871834493e+00 3.074438300697066723e-02 1.222941036736413878e+01 6.332609669779440509e+01
2.530727415391777591e+00 3.091331461755892490e-02 1.240201763501980814e+01 6.335931948863454721e+01
2.548180707911721132e+00 3.108373544554791923e-02 1.257342530027697691e+01 6.323116430185093861e+01
2.565634000431664674e+00 3.125572483658634049e-02 1.274336199084503463e+01 6.295634720141522678e+01
2.583087292951607772e+00 3.142936532080021356e-02 1.291155933075082984e+01 6.253408999923298950e+01
2.600540585471550870e+00 3.160474284047539578e-02 1.307770579890476803e+01 6.194678297619318386e+01
2.617993877991494411e+00 3.178194703128308513e-02 1.324148439455758108e+01 6.119132139636737122e+01
2.635447170511437509e+00 3.196107146519761716e-02 1.340260782180883403e+01 6.027860239839316847e+01
2.652900463031380607e+00 3.214221402928386928e-02 1.356082394572439043e+01 5.922244207529815441e+01
2.670353755551324149e+00 3.232547716587177988e-02 1.371586000564945174e+01 5.801638380066685841e+01
2.687807048071267690e+00 3.251096818238931319e-02 1.386738087072111369e+01 5.663879537829911470e+01
2.705260340591210788e+00 3.269880006075786411e-02 1.401511965283288674e+01 5.511781936710358565e+01
2.722713633111153886e+00 3.288909139330241371e-02 1.415879388249597071e+01 5.345103680825147308e+01
2.740166925631096984e+00 3.308196563726115147e-02 1.429803714635919931e+01 5.161148835203390206e+01
2.757620218151040525e+00 3.327755749007513947e-02 1.443271154179400817e+01 4.968807937068425673e+01
2.775073510670984067e+00 3.347600234978048706e-02 1.456239535664308171e+01 4.758266316381299532e+01
2.792526803190927165e+00 3.367739907798213833e-02 1.468698882450810217e+01 4.543030282766086714e+01
2.809980095710870263e+00 3.388176583845787376e-02 1.480658013158457642e+01 4.332256055600049649e+01
2.827433388230813804e+00 3.408906992850139345e-02 1.492127445287958842e+01 4.127717513606094712e+01
2.844886680750756902e+00 3.429927774863316542e-02 1.503117266876514080e+01 3.929204579376362005e+01
2.862339973270700000e+00 3.451236594515968981e-02 1.513633347198818946e+01 3.734953441140174846e+01
2.879793265790643542e+00 3.472831788686208537e-02 1.523688685909664287e+01 3.547364683531882434e+01
2.897246558310587083e+00 3.494711259133469888e-02 1.533322754657275766e+01 3.375798529094356581e+01
2.914699850830530625e+00 3.516871538276216541e-02 1.542571859710244730e+01 3.219140221634739163e+01
2.932153143350473723e+00 3.539310404165945528e-02 1.551468146962589856e+01 3.075535627796636717e+01
2.949606435870416821e+00 3.562026372916464456e-02 1.560040061555656088e+01 2.943420621035954099e+01
2.967059728390360362e+00 3.585016627715359450e-02 1.568312858723309411e+01 2.821702997450851669e+01
2.984513020910303460e+00 3.608278256913988180e-02 1.576309063309941294e+01 2.709287826394270482e+01
3.001966313430246558e+00 3.631808870595401584e-02 1.584048853421521130e+01 2.605160625635313210e+01
3.019419605950190100e+00 3.655606602748154299e-02 1.591550376973243353e+01 2.508443359220768798e+01
3.036872898470133197e+00 3.679669559228151976e-02 1.598830016880453719e+01 2.418428260343562286e+01
3.054326190990076295e+00 3.703995370317527541e-02 1.605902614311452581e+01 2.334537307447426713e+01
3.071779483510019837e+00 3.728581275544716467e-02 1.612781658036177745e+01 2.256251181631655101e+01
3.089232776029963379e+00 3.753424364761396431e-02 1.619479445849272992e+01 2.183087940747099864e+01
3.106686068549906921e+00 3.778522321891068791e-02 1.626007222344666658e+01 2.114556908461083395e+01
3.124139361069850018e+00 3.803873253385196829e-02 1.632375296001374210e+01 2.050237507590959396e+01
3.141592653589793116e+00 3.829474651138729119e-02 1.638593142470466901e+01 1.989836782209302868e+01
3.159045946109736214e+00 3.855323463633662795e-02 1.644669495909646528e+01 1.933085543048300536e+01
3.176499238629679756e+00 3.881417103078466102e-02 1.650612422088104836e+01 1.879666459419370739e+01
3.193952531149622853e+00 3.907753611398958465e-02 1.656429387978433354e+01 1.829284492149365704e+01
3.211405823669565951e+00 3.934331019728211365e-02 1.662127323548484981e+01 1.781718947437243017e+01
3.228859116189509493e+00 3.961147012629141761e-02 1.667712667414805239e+01 1.736789823920118891e+01
3.246312408709452590e+00 3.988199040245900967e-02 1.673191421965002235e+01 1.694328655564942210e+01
3.263765701229396576e+00 4.015484577580571285e-02 1.678569184235796641e+01 1.654163140930923959e+01
3.281218993749339674e+00 4.043001159913950371e-02 1.683851192482099890e+01 1.616137457857285398e+01
3.298672286269282772e+00 4.070746376027577218e-02 1.689042347901319729e+01 1.580106873504157861e+01
3.316125578789226314e+00 4.098717853555663287e-02 1.694147254547100800e+01 1.545943286332483702e+01
3.333578871309169411e+00 4.126913257074625585e-02 1.699170233851931400e+01 1.513526294149729523e+01
3.351032163829112509e+00 4.155330287601154832e-02 1.704115358710372874e+01 1.482748736561911862e+01
3.368485456349056051e+00 4.183966658767608593e-02 1.708986465638698604e+01 1.453510950252593936e+01
3.385938748868999149e+00 4.212820063118019598e-02 1.713787178335123329e+01 1.425724286480319947e+01
3.403392041388942246e+00 4.241888169555445981e-02 1.718520925653041331e+01 1.399307491891171829e+01
3.420845333908885788e+00 4.271168623341971282e-02 1.723190950227346008e+01 1.374183635003022097e+01
3.438298626428828886e+00 4.300659046098704447e-02 1.727800332533673355e+01 1.350284522426690614e+01
