# angles(rad), pulling distance(m),                                     elastic band force(n), cable force(n)
0.000000000000000000e+00 2.286970566950914750e-04 5.119641770658395902e-02 5.730448008085973349e-02
1.745329251994329547e-02 4.583675341882243598e-04 1.017332189995625857e-01 1.119271298948228133e-01
3.490658503988659095e-02 6.890395946247888752e-04 1.516288560003720143e-01 1.639907829219553470e-01
5.235987755982988295e-02 9.207414160120208245e-04 2.009066322478093025e-01 2.136416539857047825e-01
6.981317007977318190e-02 1.153500762677030916e-03 2.495946952213238257e-01 2.610482116595875257e-01
8.726646259971647390e-02 1.387344536156760039e-03 2.977239805838168274e-01 3.063849468289986389e-01
1.047197551196597659e-01 1.622299230996732599e-03 3.453233694567608980e-01 3.497946989500050896e-01
1.221730476396030718e-01 1.858391907697290847e-03 3.924189925673717827e-01 3.913975061335495664e-01
1.396263401595463638e-01 2.095650288721300891e-03 4.390347614151556277e-01 4.313007377429528555e-01
1.570796326794896558e-01 2.334102429790896674e-03 4.851937686156590490e-01 4.696133689282533941e-01
1.745329251994329478e-01 2.573776470525291748e-03 5.309185159654333797e-01 5.064402246369930083e-01
1.919862177193762398e-01 2.814700626938466260e-03 5.762308849271816635e-01 5.418797943240899473e-01
2.094395102393195318e-01 3.056903046523542101e-03 6.211519742654375564e-01 5.760228030837369895e-01
2.268928027592628516e-01 3.300411533021265637e-03 6.657020445112502571e-01 6.089535784214781255e-01
2.443460952792061436e-01 3.545253515648282266e-03 7.099005215709297545e-01 6.407504460765839349e-01
2.617993877991494078e-01 3.791456049097135118e-03 7.537661094172019016e-01 6.714876777466630697e-01
2.792526803190927276e-01 4.039045813536265052e-03 7.973169213950023204e-01 7.012365678575802619e-01
2.967059728390360474e-01 4.288049114610011960e-03 8.405704876289320504e-01 7.300640414035458603e-01
3.141592653589793116e-01 4.538491883438611728e-03 8.835437730602937467e-01 7.580330414093061631e-01
3.316125578789225758e-01 4.790399676618199709e-03 9.262533154008455449e-01 7.852050683478895010e-01
3.490658503988658956e-01 5.043803311512121135e-03 9.687152888311992838e-01 8.116214053746091395e-01
3.665191429188092154e-01 5.298754216788304459e-03 1.010945504343538026e+00 8.372679923103180100e-01
3.839724354387524796e-01 5.555301305199054733e-03 1.052959374833563055e+00 8.621984190030116402e-01
4.014257279586957439e-01 5.813483782953174014e-03 1.094771754103180283e+00 8.864856398159635109e-01
4.188790204786390636e-01 6.073331149715959637e-03 1.136396890477089139e+00 9.102011717551362624e-01
4.363323129985823834e-01 6.334863198609205076e-03 1.177848426798483006e+00 9.334157525080833961e-01
4.537856055185257032e-01 6.598090016211201683e-03 1.219139603715922560e+00 9.562040357948239366e-01
4.712388980384689674e-01 6.863011982556736952e-03 1.260284194337040864e+00 9.786632259597326522e-01
4.886921905584122872e-01 7.129619771137094518e-03 1.301296772674813695e+00 1.000899788303271531e+00
5.061454830783556069e-01 7.397894348900054158e-03 1.342192713670920412e+00 1.023023397919390343e+00
5.235987755982988157e-01 7.667806976249893526e-03 1.382987720852366875e+00 1.045134393266060835e+00
5.410520681182421354e-01 7.939319176201812059e-03 1.423694583124857305e+00 1.067247426149118272e+00
5.585053606381854552e-01 8.212379345193423011e-03 1.464321812727418015e+00 1.089344863394238416e+00
5.759586531581287749e-01 8.486916347701628505e-03 1.504873640542890856e+00 1.111423527571941960e+00
5.934119456780720947e-01 8.762838804410323298e-03 1.545350124693292138e+00 1.133476785019462252e+00
6.108652381980153034e-01 9.040035557274101949e-03 1.585748711567562808e+00 1.155533144295286974e+00
6.283185307179586232e-01 9.318387468505199070e-03 1.626065405647898476e+00 1.177602503682731783e+00
6.457718232379019430e-01 9.597779866659097645e-03 1.666294797817882589e+00 1.199639419954725339e+00
6.632251157578451517e-01 9.878102840228584341e-03 1.706430102922383174e+00 1.221592578521172090e+00
6.806784082777884715e-01 1.015924927601963117e-02 1.746463551806415992e+00 1.243426030501622925e+00
6.981317007977317912e-01 1.044111417192613439e-02 1.786386624561689729e+00 1.265110416677800442e+00
7.155849933176750000e-01 1.072359574783040594e-02 1.826190057004352996e+00 1.286608380188120293e+00
7.330382858376184307e-01 1.100659396492645846e-02 1.865865379673355084e+00 1.307937762914142876e+00
7.504915783575616395e-01 1.128999316852580606e-02 1.905408885532066554e+00 1.329335906229269559e+00
7.679448708775049592e-01 1.157366844837331467e-02 1.944822260714439421e+00 1.351051975092326440e+00
7.853981633974482790e-01 1.185753249818117042e-02 1.984112212589358659e+00 1.373116345656364645e+00
8.028514559173914877e-01 1.214149063612983935e-02 2.023288115142209076e+00 1.395701116505429162e+00
8.203047484373349185e-01 1.242540386245892699e-02 2.062361090295049770e+00 1.419141064317303691e+00
8.377580409572781273e-01 1.270917023754038373e-02 2.101343930195422427e+00 1.443376685890153999e+00
8.552113334772214470e-01 1.299270441159133815e-02 2.140249858180815146e+00 1.468401598005689479e+00
8.726646259971647668e-01 1.327589845216555972e-02 2.179091516756893387e+00 1.494373407863373249e+00
8.901179185171079755e-01 1.355862206995600908e-02 2.217880939918664751e+00 1.521456236540838614e+00
9.075712110370514063e-01 1.384077158627140466e-02 2.256629775883549183e+00 1.549564538707904005e+00
9.250245035569946150e-01 1.412224875497771967e-02 2.295349712691202804e+00 1.578738983260113971e+00
9.424777960769379348e-01 1.440294937416329059e-02 2.334052526141831674e+00 1.609087998546910425e+00
9.599310885968812546e-01 1.468276921877216881e-02 2.372750066350739484e+00 1.640691195912811873e+00
9.773843811168245743e-01 1.496160291100752902e-02 2.411454186329444749e+00 1.673635840106157513e+00
9.948376736367677831e-01 1.523934184860255801e-02 2.450176718364496686e+00 1.708025660535009260e+00
1.012290966156711214e+00 1.551586603119173464e-02 2.488929476947844943e+00 1.744022570612489442e+00
1.029744258676654312e+00 1.579106966304038434e-02 2.527724312887755787e+00 1.781638006756659953e+00
1.047197551196597631e+00 1.606484742537823973e-02 2.566573160780558638e+00 1.820973505617815791e+00
1.064650843716540951e+00 1.633709300061221559e-02 2.605488040701864350e+00 1.862146963328459526e+00
1.082104136236484271e+00 1.660770001637165358e-02 2.644481073072695754e+00 1.905278320242111967e+00
1.099557428756427591e+00 1.687656180098362144e-02 2.683564510782011858e+00 1.950498962644538592e+00
1.117010721276370910e+00 1.714357154935136629e-02 2.722750743375511373e+00 1.997948475219875064e+00
1.134464013796314230e+00 1.740862233275904808e-02 2.762052306123021328e+00 2.047776856671860823e+00
1.151917306316257550e+00 1.767160713801784952e-02 2.801481927287681639e+00 2.100147401746125020e+00
1.169370598836200648e+00 1.793241888416747046e-02 2.841052543479493320e+00 2.155236515197132441e+00
1.186823891356144189e+00 1.819095043633025752e-02 2.880777303444236992e+00 2.213234437612223271e+00
1.204277183876087287e+00 1.844709461627614885e-02 2.920669611060832338e+00 2.274348973993719714e+00
1.221730476396030607e+00 1.870074421545199830e-02 2.960743152634968123e+00 2.338806451951035648e+00
1.239183768915973927e+00 1.895179201571964983e-02 3.001011899237184810e+00 2.406852153091580071e+00
1.256637061435917246e+00 1.920013082249862751e-02 3.041490148138406902e+00 2.478754666735037304e+00
1.274090353955860566e+00 1.944565352231903202e-02 3.082192562991026286e+00 2.554808179575380311e+00
1.291543646475803886e+00 1.968825315355761038e-02 3.123134176902305992e+00 2.635332811740960235e+00
1.308996938995747206e+00 1.992782306903212799e-02 3.164330435448137191e+00 2.720679148818869297e+00
1.326450231515690303e+00 2.016425695261092263e-02 3.205797246345314822e+00 2.811233867513553530e+00
1.343903524035633845e+00 2.039744954770610075e-02 3.247550984332645108e+00 2.907412065228246689e+00
1.361356816555576943e+00 2.062729540719382415e-02 3.289608543626657777e+00 3.009688899465681189e+00
1.378810109075520263e+00 2.085369336080103095e-02 3.331987392527237191e+00 3.118530622664902108e+00
1.396263401595463582e+00 2.107653932878494549e-02 3.374705581633280715e+00 3.234550584819972929e+00
1.413716694115406902e+00 2.129570030153900978e-02 3.417781816401816108e+00 3.358836431068541017e+00
1.431169986635350000e+00 2.151113417924769428e-02 3.461235507345759910e+00 3.490710458820840412e+00
1.448623279155293542e+00 2.172299170285446959e-02 3.505086790475391734e+00 3.627498108784475761e+00
1.466076571675236861e+00 2.193147124027121017e-02 3.549356626581361862e+00 3.768461837727072439e+00
1.483529864195180181e+00 2.213673346328263666e-02 3.594066833835571906e+00 3.914297299053600465e+00
1.500983156715123279e+00 2.233893826475271197e-02 3.639240151373080767e+00 4.065100080661409265e+00
1.518436449235066599e+00 2.253823541836296254e-02 3.684900340440665722e+00 4.221165309986558256e+00
1.535889741755009918e+00 2.273476603214957467e-02 3.731072214600620995e+00 4.382792926126290567e+00
1.553343034274953460e+00 2.292866426089576123e-02 3.777781771030504832e+00 4.550286816820776181e+00
1.570796326794896558e+00 2.312005720130099959e-02 3.825056246099108659e+00 4.723986312121820852e+00
1.588249619314839878e+00 2.330906559424098315e-02 3.872924230236100662e+00 4.904255116215407106e+00
1.605702911834782975e+00 2.349580431802795327e-02 3.921415779489112463e+00 5.091486183379033470e+00
1.623156204354726295e+00 2.368038278613651682e-02 3.970562514264198928e+00 5.286103650011546584e+00
1.640609496874669837e+00 2.386290537970182229e-02 4.020397780064251414e+00 5.488569608774345632e+00
1.658062789394613157e+00 2.404347177739663000e-02 4.070956752128675582e+00 5.699382369421678085e+00
1.675516081914556255e+00 2.422217733156924527e-02 4.122276632764293680e+00 5.919087006554762276e+00
1.692969374434499574e+00 2.439911335011195684e-02 4.174396784743398037e+00 6.148273162069317621e+00
1.710422666954442894e+00 2.457436739043583618e-02 4.227358957289860442e+00 6.387587815323924723e+00
1.727875959474386436e+00 2.474802353641233216e-02 4.281207472310343931e+00 6.637734114798130136e+00
1.745329251994329534e+00 2.492016261387933196e-02 4.335989470985156302e+00 6.899484212091416602e+00
1.762782544514272853e+00 2.509086245804909021e-02 4.391755182270332014e+00 7.173684097980339125e+00
1.780235837034215951e+00 2.526019807660849839e-02 4.448558189678047725e+00 7.461262017750897257e+00
1.797689129554159271e+00 2.542824189746997754e-02 4.506455792189465903e+00 7.763242493948538048e+00
1.815142422074102813e+00 2.559506389825522490e-02 4.565509346384795109e+00 8.080755306462432230e+00
1.832595714594046132e+00 2.576073183104091863e-02 4.625784678538613193e+00 8.415047598005553908e+00
1.850049007113989230e+00 2.592531132881749356e-02 4.687352566964540834e+00 8.767507610444715382e+00
1.867502299633932550e+00 2.608886610789052860e-02 4.750289256381533320e+00 9.139674219982902414e+00
1.884955592153875870e+00 2.625145805859445403e-02 4.814677050767184774e+00 9.533265165832954580e+00
1.902408884673818967e+00 2.641314742504507693e-02 4.880604998016110585e+00 9.950198826164323052e+00
1.919862177193762509e+00 2.657399288874007226e-02 4.948169670317516200e+00 1.039262950246209982e+01
1.937315469713705829e+00 2.673405172174533190e-02 5.017476052917499985e+00 1.086297795880865635e+01
1.954768762233649149e+00 2.689337987410220232e-02 5.088638569834942338e+00 1.136397814686043795e+01
1.972222054753592246e+00 2.705203209429508232e-02 5.161782271073338535e+00 1.189872602583298367e+01
1.989675347273535566e+00 2.721006203075204688e-02 5.237044211674741767e+00 1.247074191203399707e+01
2.007128639793478886e+00 2.736752231584191342e-02 5.314575060404592932e+00 1.308404575911023926e+01
2.024581932313422428e+00 2.752446468561284276e-02 5.394540984254134308e+00 1.374324391111632693e+01
2.042035224833365525e+00 2.768094003232218075e-02 5.477125873894966190e+00 1.445364542584408696e+01
2.059488517353308623e+00 2.783699853416158124e-02 5.562533986327711233e+00 1.522139205860592348e+01
2.076941809873252165e+00 2.799268969576369781e-02 5.650993078207399378e+00 1.605363177885857695e+01
2.094395102393195263e+00 2.814806246541698420e-02 5.742758191462250750e+00 1.695872632671494173e+01
2.111848394913138804e+00 2.830316529044363955e-02 5.838116204771155893e+00 1.794651911265403754e+01
2.129301687433081902e+00 2.845804620089176576e-02 5.937391380344692493e+00 1.902867080349265549e+01
2.146754979953025444e+00 2.861275289569526620e-02 6.040951050206270878e+00 2.021886955842177613e+01
2.164208272472968542e+00 2.876733279005729005e-02 6.149185706834846776e+00 2.152786448300645006e+01
2.181661564992911639e+00 2.892183312591714919e-02 6.262243144567008812e+00 2.291235033374712771e+01
2.199114857512855181e+00 2.907630100408310075e-02 6.380252587731773062e+00 2.437173553714058727e+01
2.216568150032798723e+00 2.923078349103701290e-02 6.503373061025278012e+00 2.591550618668330941e+01
2.234021442552741821e+00 2.938532766845580735e-02 6.631729269742280053e+00 2.753981549220648972e+01
2.251474735072684918e+00 2.953998070992821384e-02 6.765454708674664808e+00 2.924977717480259543e+01
2.268928027592628460e+00 2.969478996615226504e-02 6.904692915440668877e+00 3.105101992171852388e+01
2.286381320112572002e+00 2.984980300889686355e-02 7.049514129180026067e+00 3.293010621508435776e+01
2.303834612632515100e+00 3.000506774351625883e-02 7.199674403184433302e+00 3.481489482382588818e+01
2.321287905152458197e+00 3.016063244305373925e-02 7.354857439763597071e+00 3.668406503862357226e+01
2.338741197672401295e+00 3.031654585939206475e-02 7.514747588345333185e+00 3.853209482138093733e+01
2.356194490192344837e+00 3.047285727882478173e-02 7.678985986909919959e+00 4.034204172884706452e+01
2.373647782712288379e+00 3.062961660843126210e-02 7.847249341593595773e+00 4.211565916269468346e+01
2.391101075232231477e+00 3.078687446935166397e-02 8.019259788021413371e+00 4.385779025877815940e+01
2.408554367752174574e+00 3.094468225576984047e-02 8.194658141693865971e+00 4.554051417820566883e+01
2.426007660272118116e+00 3.110309226146842215e-02 8.373114864601804541e+00 4.716364451472170316e+01
2.443460952792061214e+00 3.126215772683378635e-02 8.554313503016761189e+00 4.872301966240772941e+01
2.460914245312004311e+00 3.142193298081594893e-02 8.737918971431444248e+00 5.020582554975536027e+01
2.478367537831947853e+00 3.158247349882276067e-02 8.923613135924695072e+00 5.160886815707775810e+01
2.495820830351891395e+00 3.174383604240831047e-02 9.111069885208351593e+00 5.292218086138019828e+01
2.513274122871834493e+00 3.190607874430093777e-02 9.299972838053198743e+00 5.414087382641615420e+01
2.530727415391777591e+00 3.206926123983190602e-02 9.489981667539435506e+00 5.525042078281057911e+01
2.548180707911721132e+00 3.223344478411617475e-02 9.680777152248399631e+00 5.624950348022420599e+01
2.565634000431664674e+00 3.239869237899639653e-02 9.872035348598934945e+00 5.712965675689207501e+01
2.583087292951607772e+00 3.256506892080351934e-02 1.006343466046571855e+01 5.788479698244915994e+01
2.600540585471550870e+00 3.273264133181513075e-02 1.025465366506740317e+01 5.850857711396512428e+01
2.617993877991494411e+00 3.290147873442881427e-02 1.044534376324658531e+01 5.898644485446850894e+01
2.635447170511437509e+00 3.307165259882725861e-02 1.063521241489604563e+01 5.933030457879075925e+01
2.652900463031380607e+00 3.324323693888531911e-02 1.082387807594202833e+01 5.950700721253760861e+01
2.670353755551324149e+00 3.341630848924490721e-02 1.101110861348634984e+01 5.955963820681567000e+01
2.687807048071267690e+00 3.359094691666147242e-02 1.119652886830228766e+01 5.943890089157095957e+01
2.705260340591210788e+00 3.376723504538056697e-02 1.137977930635266155e+01 5.914605702487917682e+01
2.722713633111153886e+00 3.394525907970351308e-02 1.156054463329350135e+01 5.869279499813276857e+01
2.740166925631096984e+00 3.412510888289560507e-02 1.173854318996416346e+01 5.808857469246655825e+01
2.757620218151040525e+00 3.430687821468339505e-02 1.191346445714131619e+01 5.732315453923784077e+01
2.775073510670984067e+00 3.449066511396810253e-02 1.208493451508376815e+01 5.637519403170495735e+01
2.792526803190927165e+00 3.467657212971721192e-02 1.225266644166813457e+01 5.527395885989934499e+01
2.809980095710870263e+00 3.486470660843161984e-02 1.241625775534216736e+01 5.398244731618838443e+01
2.827433388230813804e+00 3.505518149462830135e-02 1.257544248106737328e+01 5.254809182967011338e+01
2.844886680750756902e+00 3.524811547832770731e-02 1.272987865091882398e+01 5.094887027742677788e+01
2.862339973270700000e+00 3.544363172093806247e-02 1.287929603090192998e+01 4.921306391917737244e+01
2.879793265790643542e+00 3.564186385660324252e-02 1.302334788035076407e+01 4.731920336440265373e+01
2.897246558310587083e+00 3.584295273206820204e-02 1.316196000245750675e+01 4.536320576676060057e+01
2.914699850830530625e+00 3.604701133504173427e-02 1.329522988304567477e+01 4.341531484305055244e+01
2.932153143350473723e+00 3.625407385465942434e-02 1.342326077543447482e+01 4.149935147653900458e+01
2.949606435870416821e+00 3.646410041732107976e-02 1.354615591668430952e+01 3.963205233842392516e+01
2.967059728390360362e+00 3.667704242553565530e-02 1.366401854807942939e+01 3.781492423715417317e+01
2.984513020910303460e+00 3.689287622548792500e-02 1.377695199452352348e+01 3.604344339441823308e+01
3.001966313430246558e+00 3.711158006268509835e-02 1.388505990653662892e+01 3.431775258061102107e+01
3.019419605950190100e+00 3.733310255880399608e-02 1.398844713191481404e+01 3.264288642589770006e+01
3.036872898470133197e+00 3.755740648163256867e-02 1.408722538692069115e+01 3.101843971444885995e+01
3.054326190990076295e+00 3.778447038597127633e-02 1.418165903688118945e+01 2.949006424531277659e+01
3.071779483510019837e+00 3.801426909621512945e-02 1.427213515643299679e+01 2.809605426642131576e+01
3.089232776029963379e+00 3.824676638646138521e-02 1.435899756192120513e+01 2.682304527736126332e+01
3.106686068549906921e+00 3.848191637412440302e-02 1.444254828106968702e+01 2.565777925851483587e+01
3.124139361069850018e+00 3.871968178232977620e-02 1.452305418153008532e+01 2.458708277087426808e+01
3.141592653589793116e+00 3.896003467017911115e-02 1.460075221518424016e+01 2.359966936828469031e+01
3.159045946109736214e+00 3.920294717062305923e-02 1.467585375024192906e+01 2.268675228551333944e+01
3.176499238629679756e+00 3.944838856335333016e-02 1.474854814180343610e+01 2.184099270415740790e+01
3.193952531149622853e+00 3.969632179319555754e-02 1.481900570046264853e+01 2.105629334308991218e+01
3.211405823669565951e+00 3.994670560964268952e-02 1.488738017949819614e+01 2.032712973268967716e+01
3.228859116189509493e+00 4.019950383686303474e-02 1.495381087013156751e+01 1.964792227039141537e+01
3.246312408709452590e+00 4.045468704377438302e-02 1.501842437526173235e+01 1.901365399712765480e+01
3.263765701229396576e+00 4.071222701242005471e-02 1.508133611575170363e+01 1.842030790299565268e+01
3.281218993749339674e+00 4.097209256577177827e-02 1.514265162387314589e+01 1.786461050047462962e+01
3.298672286269282772e+00 4.123424972016427603e-02 1.520246766927711413e+01 1.734363302930080408e+01
3.316125578789226314e+00 4.149866381249969066e-02 1.526087321455760204e+01 1.685461644044981711e+01
3.333578871309169411e+00 4.176530055796325719e-02 1.531795022280041607e+01 1.639501655350893827e+01
3.351032163829112509e+00 4.203412605764134807e-02 1.537377441691428714e+01 1.596255876656764272e+01
3.368485456349056051e+00 4.230510671142014706e-02 1.542841591169440996e+01 1.555520100325236754e+01
3.385938748868999149e+00 4.257820895769715702e-02 1.548193972789530548e+01 1.517110363839175413e+01
3.403392041388942246e+00 4.285339922497131276e-02 1.553440635342879261e+01 1.480862475812795687e+01
3.420845333908885788e+00 4.313064393184298101e-02 1.558587209811033425e+01 1.446625479511483903e+01
3.438298626428828886e+00 4.340990948701396734e-02 1.563638954919569279e+01 1.414264182561738892e+01
