# angles(rad), pulling distance(m),                                     elastic band force(n), cable force(n)
0.000000000000000000e+00 2.318169190226339045e-04 7.530242194131073208e-02 1.223045922216218773e-01
1.745329251994329547e-02 4.662521414823452156e-04 1.508022711205647681e-01 2.428293113558964988e-01
3.490658503988659095e-02 7.032268065088123632e-04 2.264813941986876522e-01 3.616402053897411206e-01
5.235987755982988295e-02 9.426637894367261104e-04 3.023214753640890429e-01 4.787916417356307131e-01
6.981317007977318190e-02 1.184500101931222366e-03 3.783040363326626854e-01 5.942968036687673594e-01
8.726646259971647390e-02 1.428663035175140083e-03 4.544104363477864394e-01 7.082062371273765145e-01
1.047197551196597659e-01 1.675053288729074635e-03 5.306218721803223071e-01 8.206382797150407749e-01
1.221730476396030718e-01 1.923594651276982256e-03 6.069194088281134603e-01 9.315643754949006761e-01
1.396263401595463638e-01 2.174221572497312197e-03 6.832841023139716308e-01 1.040965208025180111e+00
1.570796326794896558e-01 2.426857393894173501e-03 7.596970303851751094e-01 1.148900306729236265e+00
1.745329251994329478e-01 2.681421915283446061e-03 8.361392925134671916e-01 1.255406264495517066e+00
1.919862177193762398e-01 2.937837180958415787e-03 9.125920098950577319e-01 1.360491132100626777e+00
2.094395102393195318e-01 3.196026711198664012e-03 9.890363254506222557e-01 1.464160938058002071e+00
2.268928027592628516e-01 3.455913736367306234e-03 1.065453403825301848e+00 1.566427493097322321e+00
2.443460952792061436e-01 3.717420985565711867e-03 1.141824431636354831e+00 1.667301875782405629e+00
2.617993877991494078e-01 3.980470686633502501e-03 1.218130653183692624e+00 1.766794395091971115e+00
2.792526803190927276e-01 4.244984566148553642e-03 1.294353443132203241e+00 1.864915950646427234e+00
2.967059728390360474e-01 4.510883849426995142e-03 1.370474315346367655e+00 1.961676973044583994e+00
3.141592653589793116e-01 4.778089537528625030e-03 1.446474903881207474e+00 2.057084652218104992e+00
3.316125578789225758e-01 5.046523335528033116e-03 1.522336656166668467e+00 2.151128642628063137e+00
3.490658503988658956e-01 5.316107210517838876e-03 1.598040584821688537e+00 2.243790553603069338e+00
3.665191429188092154e-01 5.586763211858137602e-03 1.673567342459706175e+00 2.335051032286779460e+00
3.839724354387524796e-01 5.858413471176508215e-03 1.748897956822072164e+00 2.424911315657710009e+00
4.014257279586957439e-01 6.130980202368008052e-03 1.824014209148769439e+00 2.513386556439956454e+00
4.188790204786390636e-01 6.404385701595173737e-03 1.898898005033118563e+00 2.600472393862680587e+00
4.363323129985823834e-01 6.678552347580170301e-03 1.973530365368995954e+00 2.686125966068001247e+00
4.537856055185257032e-01 6.953402716354388155e-03 2.047891701295653011e+00 2.770306683971677231e+00
4.712388980384689674e-01 7.228859869973230413e-03 2.121962712699741793e+00 2.853001314841916880e+00
4.886921905584122872e-01 7.504847401208631676e-03 2.195724349513739071e+00 2.934194550157776415e+00
5.061454830783556069e-01 7.781289300176444726e-03 2.269157447935078231e+00 3.013856850750635807e+00
5.235987755982988157e-01 8.058108866948824819e-03 2.342244115436883156e+00 3.092028841547834528e+00
5.410520681182421354e-01 8.335228181713581763e-03 2.414969195290488368e+00 3.168830503939914944e+00
5.585053606381854552e-01 8.612568362071729502e-03 2.487313035328519550e+00 3.244062510523067377e+00
5.759586531581287749e-01 8.890050280822764384e-03 2.559250335989202707e+00 3.317433469443386684e+00
5.934119456780720947e-01 9.167595229453524494e-03 2.630765464042018387e+00 3.389352426806112817e+00
6.108652381980153034e-01 9.445128106800903742e-03 2.701843635211825134e+00 3.459808189450404914e+00
6.283185307179586232e-01 9.722576648444865646e-03 2.772459892369477430e+00 3.528235173967446681e+00
6.457718232379019430e-01 9.999859691124889788e-03 2.842598443632116556e+00 3.595166417873274511e+00
6.632251157578451517e-01 1.027688821761540972e-02 2.912244139091467954e+00 3.660728932574167871e+00
6.806784082777884715e-01 1.055358556374181092e-02 2.981371423906054918e+00 3.724179404747064215e+00
6.981317007977317912e-01 1.082988332393382443e-02 3.049962102831309085e+00 3.785752211384452615e+00
7.155849933176750000e-01 1.110570718584381888e-02 3.118002694939250308e+00 3.845764976400944946e+00
7.330382858376184307e-01 1.138097699314563963e-02 3.185491984081038286e+00 3.905015803944861918e+00
7.504915783575616395e-01 1.165561009397194508e-02 3.252455311034436303e+00 3.965203534075486758e+00
7.679448708775049592e-01 1.192952801228537758e-02 3.318921332520781586e+00 4.026671529140315009e+00
7.853981633974482790e-01 1.220266264661786990e-02 3.384917016606518558e+00 4.089373627594671490e+00
8.028514559173914877e-01 1.247494092415646176e-02 3.450468894926701946e+00 4.153557881894403891e+00
8.203047484373349185e-01 1.274626510170452642e-02 3.515602607115707379e+00 4.219753846710300849e+00
8.377580409572781273e-01 1.301656024589943617e-02 3.580343033571501632e+00 4.287774675750439357e+00
8.552113334772214470e-01 1.328576403233092118e-02 3.644714393073752223e+00 4.357576533183158851e+00
8.726646259971647668e-01 1.355380076609934321e-02 3.708740260769153974e+00 4.429529302087600762e+00
8.901179185171079755e-01 1.382057858056843190e-02 3.772443626229839975e+00 4.504073089432237609e+00
9.075712110370514063e-01 1.408601663094585267e-02 3.835846939116501542e+00 4.581208370848481870e+00
9.250245035569946150e-01 1.435004192899969229e-02 3.898972150399455217e+00 4.660982159560501437e+00
9.424777960769379348e-01 1.461258166735694003e-02 3.961840756553426157e+00 4.743575348383646251e+00
9.599310885968812546e-01 1.487356271035116841e-02 4.024473836517483250e+00 4.829185842847412147e+00
9.773843811168245743e-01 1.513290979988786075e-02 4.086892090204058192e+00 4.918055331404138641e+00
9.948376736367677831e-01 1.539053829644092437e-02 4.149115876283875792e+00 5.010581169406587598e+00
1.012290966156711214e+00 1.564636149248700009e-02 4.211165244160679499e+00 5.107045519396030464e+00
1.029744258676654312e+00 1.590030350233531328e-02 4.273059970065949287e+00 5.207485673244723223e+00
1.047197551196597631e+00 1.615229016299499568e-02 4.334819589294300002e+00 5.312122605171844647e+00
1.064650843716540951e+00 1.640224603715631155e-02 4.396463425858955887e+00 5.421254327298353104e+00
1.082104136236484271e+00 1.665009621661942343e-02 4.458010626587362246e+00 5.535159899385456939e+00
1.099557428756427591e+00 1.689576504152562331e-02 4.519480188762595496e+00 5.654166102861226229e+00
1.117010721276370910e+00 1.713917845249355101e-02 4.580890990313719158e+00 5.778567960056841812e+00
1.134464013796314230e+00 1.738026032441908689e-02 4.642261820618197810e+00 5.908769915933810957e+00
1.151917306316257550e+00 1.761891642261500038e-02 4.703611406343475743e+00 6.045615707564747865e+00
1.169370598836200648e+00 1.785506833370961721e-02 4.764958443038304736e+00 6.189153394936630193e+00
1.186823891356144189e+00 1.808864142332807998e-02 4.826321622210523188e+00 6.339738000859362010e+00
1.204277183876087287e+00 1.831956083201270735e-02 4.887719658957847990e+00 6.497859858137077893e+00
1.221730476396030607e+00 1.854775239039429396e-02 4.949171323196024375e+00 6.664024220862488690e+00
1.239183768915973927e+00 1.877314327087807599e-02 5.010695465312140939e+00 6.838758055489038590e+00
1.256637061435917246e+00 1.899566015201000976e-02 5.072311047374383541e+00 7.022689604376833650e+00
1.274090353955860566e+00 1.921522028421731448e-02 5.134037172570326213e+00 7.216797924303651968e+00
1.291543646475803886e+00 1.943172929809314220e-02 5.195893113087159954e+00 7.422251147457312292e+00
1.308996938995747206e+00 1.964511056788739024e-02 5.257898344018757442e+00 7.639311579458369472e+00
1.326450231515690303e+00 1.985530350713033201e-02 5.320072572351625340e+00 7.868280639020589717e+00
1.343903524035633845e+00 2.006222317843290096e-02 5.382435769599754671e+00 8.111019640179888412e+00
1.361356816555576943e+00 2.026582044255086437e-02 5.445008207110505261e+00 8.367190916365663256e+00
1.378810109075520263e+00 2.046622854828940297e-02 5.507810487626095153e+00 8.629966786919238686e+00
1.396263401595463582e+00 2.066360723477589020e-02 5.570863583250011075e+00 8.898128781663192655e+00
1.413716694115406902e+00 2.085810350497554339e-02 5.634188872991611419e+00 9.172069018980460342e+00
1.431169986635350000e+00 2.104985838859329758e-02 5.697808179299239661e+00 9.451926256114116853e+00
1.448623279155293542e+00 2.123900492085130029e-02 5.761743811619742139e+00 9.737972181328784060e+00
1.466076571675236861e+00 2.142566911969380830e-02 5.826018608533322762e+00 1.003047625630051698e+01
1.483529864195180181e+00 2.160997074160522780e-02 5.890655980891596144e+00 1.032971170091978053e+01
1.500983156715123279e+00 2.179202360672031699e-02 5.955679962000298033e+00 1.063597711285046898e+01
1.518436449235066599e+00 2.197193607459705864e-02 6.021115257295327261e+00 1.094958730532378688e+01
1.535889741755009918e+00 2.214981143128598104e-02 6.086987295797849029e+00 1.127087723046351009e+01
1.553343034274953460e+00 2.232574829561624619e-02 6.153322288572886656e+00 1.160020076260816957e+01
1.570796326794896558e+00 2.249984091626034896e-02 6.220147289354260423e+00 1.193793699967021205e+01
1.588249619314839878e+00 2.267217950771172746e-02 6.287490257233086410e+00 1.228448749828450381e+01
1.605702911834782975e+00 2.284285053650198655e-02 6.355380125266576918e+00 1.264027998967689825e+01
1.623156204354726295e+00 2.301193696788457824e-02 6.423846875702809989e+00 1.300577217470909375e+01
1.640609496874669837e+00 2.317951854346829432e-02 6.492921618155937935e+00 1.338144980974992215e+01
1.658062789394613157e+00 2.334567196667873545e-02 6.562636673598255754e+00 1.376783489342354194e+01
1.675516081914556255e+00 2.351047116151317937e-02 6.633025665528927028e+00 1.416548152786470993e+01
1.692969374434499574e+00 2.367398741778396765e-02 6.704123619489353203e+00 1.457498732279308129e+01
1.710422666954442894e+00 2.383628962571700260e-02 6.775967069341157334e+00 1.499698791973736789e+01
1.727875959474386436e+00 2.399744439568512674e-02 6.848594172102250077e+00 1.543216973362548217e+01
1.745329251994329534e+00 2.415751626604317054e-02 6.922044832743093679e+00 1.588126523458743478e+01
1.762782544514272853e+00 2.431656780902274190e-02 6.996360839953529087e+00 1.634506628758615676e+01
1.780235837034215951e+00 2.447465980805800176e-02 7.071586014023287348e+00 1.682442160578659696e+01
1.797689129554159271e+00 2.463185136231127448e-02 7.147766368168904982e+00 1.732024903831335649e+01
1.815142422074102813e+00 2.478820002729231753e-02 7.224950284713706594e+00 1.783353762193230096e+01
1.832595714594046132e+00 2.494376193038384815e-02 7.303188707865803764e+00 1.836535672070762004e+01
1.850049007113989230e+00 2.509859186976402118e-02 7.382535355218458939e+00 1.891686555404139725e+01
1.867502299633932550e+00 2.525274344773313986e-02 7.463046950234271115e+00 1.948931764297699587e+01
1.884955592153875870e+00 2.540626913162225345e-02 7.544783478288445977e+00 2.008407944566479841e+01
1.902408884673818967e+00 2.555922039791109351e-02 7.627808469222471466e+00 2.070263111806260525e+01
1.919862177193762509e+00 2.571164777600679074e-02 7.712189310004246678e+00 2.134659227156068795e+01
1.937315469713705829e+00 2.586360097779561232e-02 7.797997591516785398e+00 2.201772534865402520e+01
1.954768762233649149e+00 2.601512895644768689e-02 7.885309493806246905e+00 2.271796199519761217e+01
1.972222054753592246e+00 2.616627999520478032e-02 7.974206214835792395e+00 2.344941824883934700e+01
1.989675347273535566e+00 2.631710180099105026e-02 8.064774448532512352e+00 2.421441558659924809e+01
2.007128639793478886e+00 2.646764154972036653e-02 8.157106922025935347e+00 2.501551467364457793e+01
2.024581932313422428e+00 2.661794600417197176e-02 8.251302998307393111e+00 2.585553334017263438e+01
2.042035224833365525e+00 2.676806154577073341e-02 8.347469351226779466e+00 2.673759409133924692e+01
2.059488517353308623e+00 2.691803427794775896e-02 8.445720733816379777e+00 2.766515375887206218e+01
2.076941809873252165e+00 2.706791008515950850e-02 8.546180841377633897e+00 2.864205579722901618e+01
2.094395102393195263e+00 2.721773469340621129e-02 8.648983298827142008e+00 2.967258676542348184e+01
2.111848394913138804e+00 2.736755376912622731e-02 8.754272781163351169e+00 3.076153169844592838e+01
2.129301687433081902e+00 2.751741294852523556e-02 8.862206297644561914e+00 3.191426422201007895e+01
2.146754979953025444e+00 2.766735794778612048e-02 8.972954667142467144e+00 3.313682029621002556e+01
2.164208272472968542e+00 2.781743460388304626e-02 9.086704218278484291e+00 3.443601933225999545e+01
2.181661564992911639e+00 2.796768895419753445e-02 9.203658758324518629e+00 3.581958441028603346e+01
2.199114857512855181e+00 2.811816731991583634e-02 9.324041876436380605e+00 3.729629934286509041e+01
2.216568150032798723e+00 2.826891634665573694e-02 9.448099687904342403e+00 3.887622345432733084e+01
2.234021442552741821e+00 2.841998312025713347e-02 9.576089333408893012e+00 4.056617646236626484e+01
2.251474735072684918e+00 2.857141519985786568e-02 9.708120448964100646e+00 4.232174504241764623e+01
2.268928027592628460e+00 2.872326072585253826e-02 9.844269427321931332e+00 4.413324714144467009e+01
2.286381320112572002e+00 2.887556848563226433e-02 9.984559045833183433e+00 4.598353956386800689e+01
2.303834612632515100e+00 2.902838798728864939e-02 1.012873931549511219e+01 4.778069389099025699e+01
2.321287905152458197e+00 2.918176957119428608e-02 1.027651444996793728e+01 4.950442113344691819e+01
2.338741197672401295e+00 2.933576445592174856e-02 1.042759315320412661e+01 5.115063575808879648e+01
2.356194490192344837e+00 2.949042487816470534e-02 1.058166055207322209e+01 5.270543340469484406e+01
2.373647782712288379e+00 2.964580414112516146e-02 1.073842568576467826e+01 5.417102341041189817e+01
2.391101075232231477e+00 2.980195675233157995e-02 1.089759551795879666e+01 5.554080833204712775e+01
2.408554367752174574e+00 2.995893850347319809e-02 1.105886003618649305e+01 5.680283609125464750e+01
2.426007660272118116e+00 3.011680659003987057e-02 1.122192639857179408e+01 5.795720834298747803e+01
2.443460952792061214e+00 3.027561973343572896e-02 1.138650493738693825e+01 5.899934680266078146e+01
2.460914245312004311e+00 3.043543828405491716e-02 1.155228856854645336e+01 5.991733561830508137e+01
2.478367537831947853e+00 3.059632438311985642e-02 1.171896661704250420e+01 6.070426523706713340e+01
2.495820830351891395e+00 3.075834206033858931e-02 1.188625493372393116e+01 6.136464901988748011e+01
2.513274122871834493e+00 3.092155742853600411e-02 1.205384346592983213e+01 6.188406019007724979e+01
2.530727415391777591e+00 3.108603878892612915e-02 1.222143919651539434e+01 6.226422939623258657e+01
2.548180707911721132e+00 3.125185685335563068e-02 1.238875129488000759e+01 6.250187464180014274e+01
2.565634000431664674e+00 3.141908486848232762e-02 1.255546936857164830e+01 6.258591498071745463e+01
2.583087292951607772e+00 3.158779886398715292e-02 1.272127767181810754e+01 6.251092150297918693e+01
2.600540585471550870e+00 3.175807780633885941e-02 1.288593041074593337e+01 6.230082552957031794e+01
2.617993877991494411e+00 3.193000387049418909e-02 1.304911289113911899e+01 6.192739358538918282e+01
2.635447170511437509e+00 3.210366264026752459e-02 1.321051266923399758e+01 6.138975348371280916e+01
2.652900463031380607e+00 3.227914339874208421e-02 1.336981367466698067e+01 6.068542156246964936e+01
2.670353755551324149e+00 3.245653939379653657e-02 1.352671400190258133e+01 5.981944103838007720e+01
2.687807048071267690e+00 3.263594813183674087e-02 1.368093086829301264e+01 5.879954094932296726e+01
2.705260340591210788e+00 3.281747176343691175e-02 1.383217852335157083e+01 5.762568067766486735e+01
2.722713633111153886e+00 3.300121738218586565e-02 1.398013766158067739e+01 5.628676032699954845e+01
2.740166925631096984e+00 3.318729737272313463e-02 1.412451638136146315e+01 5.479577859972069831e+01
2.757620218151040525e+00 3.337583005681662301e-02 1.426506244943429103e+01 5.317111056158186955e+01
2.775073510670984067e+00 3.356694019608456869e-02 1.440137539784521792e+01 5.136027709394744534e+01
2.792526803190927165e+00 3.376075809660446930e-02 1.453326073806248964e+01 4.944651736924852514e+01
2.809980095710870263e+00 3.395742347521173155e-02 1.466033311396368077e+01 4.736276851286704925e+01
2.827433388230813804e+00 3.415707682213816460e-02 1.478239254189732677e+01 4.518657976265829035e+01
2.844886680750756902e+00 3.435979666600388199e-02 1.489944879971932856e+01 4.301684745921938458e+01
2.862339973270700000e+00 3.456559249861454464e-02 1.501159743057045048e+01 4.090292007787432027e+01
2.879793265790643542e+00 3.477443203926842974e-02 1.511894154541717228e+01 3.885589368111787678e+01
2.897246558310587083e+00 3.498628375310854077e-02 1.522157687612294374e+01 3.687181822194917657e+01
2.914699850830530625e+00 3.520113810666030546e-02 1.531982571509274749e+01 3.502733514229058898e+01
2.932153143350473723e+00 3.541898197608798343e-02 1.541407583308244433e+01 3.334448818291163974e+01
2.949606435870416821e+00 3.563977055426382351e-02 1.550466600681532370e+01 3.180804004519346151e+01
2.967059728390360362e+00 3.586348985899392300e-02 1.559189529759713366e+01 3.039679500154093361e+01
2.984513020910303460e+00 3.609013372335420633e-02 1.567602887531437972e+01 2.909587685953255942e+01
3.001966313430246558e+00 3.631966444641663433e-02 1.575730285482261017e+01 2.789732660275624454e+01
3.019419605950190100e+00 3.655205517528882508e-02 1.583592839721355006e+01 2.678911644921401347e+01
3.036872898470133197e+00 3.678729400400192195e-02 1.591209513055949820e+01 2.576046466084916275e+01
3.054326190990076295e+00 3.702536717173877251e-02 1.598597399788599382e+01 2.480383789785277671e+01
3.071779483510019837e+00 3.726625266179404983e-02 1.605771965092061038e+01 2.391326232098287363e+01
3.089232776029963379e+00 3.750991997137725908e-02 1.612747247335372691e+01 2.308345599688824024e+01
3.106686068549906921e+00 3.775634345847717066e-02 1.619536030184889697e+01 2.230850345331776907e+01
3.124139361069850018e+00 3.800550390118626748e-02 1.626149989532922646e+01 2.158306071307665874e+01
3.141592653589793116e+00 3.825738233521519538e-02 1.632599818841125483e+01 2.090292128566891705e+01
3.159045946109736214e+00 3.851195888025579772e-02 1.638895337036149868e+01 2.026442658416548781e+01
3.176499238629679756e+00 3.876921240586802403e-02 1.645045585462812454e+01 1.966433501679375340e+01
3.193952531149622853e+00 3.902912055137454372e-02 1.651058908498874800e+01 1.909972953910945037e+01
3.211405823669565951e+00 3.929165989615779342e-02 1.656943021827045825e+01 1.856796078850927856e+01
3.228859116189509493e+00 3.955680635341524143e-02 1.662705080934497559e+01 1.806662825840087550e+01
3.246312408709452590e+00 3.982453730176060969e-02 1.668351731092161572e+01 1.759340603623068944e+01
3.263765701229396576e+00 4.009483233371039651e-02 1.673889157877911771e+01 1.714615061983877808e+01
3.281218993749339674e+00 4.036767196847942940e-02 1.679323131340720465e+01 1.672300532675803453e+01
3.298672286269282772e+00 4.064303565958789222e-02 1.684659040354657833e+01 1.632239044053600452e+01
3.316125578789226314e+00 4.092090163801452574e-02 1.689901931788857681e+01 1.594288803001741961e+01
3.333578871309169411e+00 4.120124760423782284e-02 1.695056535022870392e+01 1.558314538098937518e+01
3.351032163829112509e+00 4.148405172267997237e-02 1.700127294249586640e+01 1.524188581728882497e+01
3.368485456349056051e+00 4.176929269871938050e-02 1.705118389150390712e+01 1.491792626628059182e+01
3.385938748868999149e+00 4.205694975780874950e-02 1.710033757608443494e+01 1.461018551215634353e+01
3.403392041388942246e+00 4.234700224589872664e-02 1.714877118193474104e+01 1.431769866399577928e+01
3.420845333908885788e+00 4.263942927013828627e-02 1.719651981144212627e+01 1.403957543643991812e+01
3.438298626428828886e+00 4.293420968607673804e-02 1.724361673972338593e+01 1.377502264380099994e+01
