# angles(rad), pulling distance(m),                                     elastic band force(n), cable force(n)
0.000000000000000000e+00 2.134567315407171059e-04 7.450709716006440053e-02 1.300335549774020716e-01
1.745329251994329547e-02 4.297733761222631566e-04 1.496265029997983498e-01 2.598009511696376395e-01
3.490658503988659095e-02 6.490945273971526590e-04 2.253247331462884806e-01 3.888517684741213953e-01
5.235987755982988295e-02 8.715080121709581481e-04 3.015679854258037085e-01 5.168869148295598404e-01
6.981317007977318190e-02 1.096968040603514072e-03 3.783221398637949817e-01 6.439677168563693321e-01
8.726646259971647390e-02 1.325389355416512144e-03 4.555527586848953092e-01 7.701256226393944360e-01
1.047197551196597659e-01 1.556683774692530289e-03 5.332250863129199825e-01 8.953271275030977305e-01
1.221730476396030718e-01 1.790760196558478659e-03 6.113040493708664647e-01 1.019538531636798195e+00
1.396263401595463638e-01 2.027529182462954604e-03 6.897542566809139464e-01 1.142703809430441586e+00
1.570796326794896558e-01 2.266903874929209611e-03 7.685399992644242895e-01 1.264753469202138492e+00
1.745329251994329478e-01 2.508812579010441610e-03 8.476252503419410278e-01 1.385536250081050413e+00
1.919862177193762398e-01 2.753175315259690382e-03 9.269736653331901444e-01 1.505014475852665568e+00
2.094395102393195318e-01 2.999889661205477464e-03 1.006548766827546793e+00 1.623258265997262528e+00
2.268928027592628516e-01 3.248870818809270877e-03 1.086314564888307244e+00 1.740106541540623164e+00
2.443460952792061436e-01 3.500043957312549102e-03 1.166235263712769088e+00 1.855420086420559445e+00
2.617993877991494078e-01 3.753328333549977788e-03 1.246275142054634966e+00 1.969164309152596548e+00
2.792526803190927276e-01 4.008638869688204397e-03 1.326398553224011234e+00 2.081300252271906626e+00
2.967059728390360474e-01 4.265889972216817608e-03 1.406569925087409301e+00 2.191762045091958822e+00
3.141592653589793116e-01 4.524995877375315168e-03 1.486753760067745178e+00 2.300480532868250716e+00
3.316125578789225758e-01 4.785870651153103020e-03 1.566914555218219762e+00 2.407383336844493460e+00
3.490658503988658956e-01 5.048428189289497908e-03 1.647016404727954964e+00 2.512383783150956340e+00
3.665191429188092154e-01 5.312582065793340982e-03 1.727022876589081823e+00 2.615388594861984384e+00
3.839724354387524796e-01 5.578245268320780430e-03 1.806897234348971093e+00 2.716310628620802525e+00
4.014257279586957439e-01 5.845331411892174499e-03 1.886603714921983643e+00 2.815094417509651947e+00
4.188790204786390636e-01 6.113755080191419708e-03 1.966107912050479856e+00 2.911699851320386667e+00
4.363323129985823834e-01 6.383431825565948244e-03 2.045375129802122771e+00 3.006028487414659001e+00
4.537856055185257032e-01 6.654278169026726225e-03 2.124368879283906608e+00 3.097916348303066503e+00
4.712388980384689674e-01 6.926211600248257175e-03 2.203054084379294952e+00 3.187319809979525687e+00
4.886921905584122872e-01 7.199150567239851091e-03 2.281399744254703155e+00 3.274317521849621215e+00
5.061454830783556069e-01 7.473013028648473055e-03 2.359368588863934413e+00 3.358569880932966267e+00
5.235987755982988157e-01 7.747713528825514451e-03 2.436915842086978756e+00 3.439675751732801601e+00
5.410520681182421354e-01 8.023162845400392401e-03 2.514011910809160977e+00 3.518259501497798425e+00
5.585053606381854552e-01 8.299269521109023731e-03 2.590626893803328112e+00 3.594278097470295474e+00
5.759586531581287749e-01 8.575946938970733721e-03 2.666714029118642415e+00 3.666772531508411426e+00
5.934119456780720947e-01 8.853115215104699620e-03 2.742238821415312611e+00 3.736124139170151626e+00
6.108652381980153034e-01 9.130695665763754326e-03 2.817173709677568194e+00 3.802584019314585895e+00
6.283185307179586232e-01 9.408603769425283661e-03 2.891483432513928253e+00 3.865762272224479545e+00
6.457718232379019430e-01 9.686750912967778682e-03 2.965123239526208376e+00 3.925100584270019510e+00
6.632251157578451517e-01 9.965048983003980954e-03 3.038066388646810445e+00 3.981452864486725751e+00
6.806784082777884715e-01 1.024341351371394794e-02 3.110325651999579666e+00 4.036969793304636234e+00
6.981317007977317912e-01 1.052176761810568427e-02 3.181934654914417404e+00 4.092901171270717953e+00
7.155849933176750000e-01 1.080002903190714104e-02 3.252926455900517766e+00 4.149535223458688193e+00
7.330382858376184307e-01 1.107810161732737143e-02 3.323332860742504558e+00 4.207245357619721737e+00
7.504915783575616395e-01 1.135590256112692202e-02 3.393184547520673888e+00 4.265998181146589019e+00
7.679448708775049592e-01 1.163335441552909751e-02 3.462511142812960685e+00 4.325869603756121506e+00
7.853981633974482790e-01 1.191036044026504669e-02 3.531341291961231033e+00 4.387318796600754744e+00
8.028514559173914877e-01 1.218684538181873285e-02 3.599702729727497719e+00 4.450167389813221241e+00
8.203047484373349185e-01 1.246273424977638322e-02 3.667622345152089736e+00 4.514562349859082779e+00
8.377580409572781273e-01 1.273792016158684787e-02 3.735126243377424160e+00 4.581186226666013717e+00
8.552113334772214470e-01 1.301231999965326604e-02 3.802239801770630034e+00 4.649817666789891391e+00
8.726646259971647668e-01 1.328585775036087747e-02 3.868987723069150508e+00 4.720498128252990533e+00
8.901179185171079755e-01 1.355845667434797674e-02 3.935394088334418061e+00 4.793401482851700202e+00
9.075712110370514063e-01 1.383003393322456386e-02 4.001482404537800797e+00 4.868802997852315961e+00
9.250245035569946150e-01 1.410048301660418377e-02 4.067275648808137412e+00 4.947313130679058979e+00
9.424777960769379348e-01 1.436972159715142576e-02 4.132796313798360544e+00 5.028691694162676029e+00
9.599310885968812546e-01 1.463767095060626751e-02 4.198066449299065361e+00 5.113062645118330529e+00
9.773843811168245743e-01 1.490424859574112672e-02 4.263107700046369963e+00 5.200695968733773711e+00
9.948376736367677831e-01 1.516937269590402405e-02 4.327941345583127486e+00 5.291790050980072380e+00
1.012290966156711214e+00 1.543296026349460365e-02 4.392588337101290819e+00 5.386589807081568537e+00
1.029744258676654312e+00 1.569492859277081542e-02 4.457069330748416824e+00 5.485324504584752958e+00
1.047197551196597631e+00 1.595519233847450188e-02 4.521404723910622536e+00 5.588299472363392972e+00
1.064650843716540951e+00 1.621365303814456191e-02 4.585614688128322847e+00 5.696072080141207472e+00
1.082104136236484271e+00 1.647022680336666933e-02 4.649719199606847653e+00 5.808621500040887398e+00
1.099557428756427591e+00 1.672483079935419351e-02 4.713738073309782450e+00 5.926226750948617727e+00
1.117010721276370910e+00 1.697738121933030364e-02 4.777690992761373323e+00 6.049233401662170273e+00
1.134464013796314230e+00 1.722779453680147246e-02 4.841597539474753908e+00 6.177981715358561665e+00
1.151917306316257550e+00 1.747598709715237827e-02 4.905477225537992148e+00 6.312847264935913749e+00
1.169370598836200648e+00 1.772187534754102178e-02 4.969349521421241533e+00 6.454227936426980783e+00
1.186823891356144189e+00 1.796537592272192535e-02 5.033233885858395595e+00 6.602550068366983993e+00
1.204277183876087287e+00 1.820640557673673665e-02 5.097149797218463618e+00 6.758275780621995743e+00
1.221730476396030607e+00 1.844488177520133346e-02 5.161116780821818573e+00 6.921887270499233580e+00
1.239183768915973927e+00 1.868072173293114022e-02 5.225154440295131764e+00 7.093934886268086437e+00
1.256637061435917246e+00 1.891383531334513146e-02 5.289282488282635697e+00 7.275238118381547991e+00
1.274090353955860566e+00 1.914412571466178603e-02 5.353520774859905629e+00 7.466681193975206021e+00
1.291543646475803886e+00 1.937150900942836290e-02 5.417889320938072295e+00 7.668585741076936912e+00
1.308996938995747206e+00 1.959590415906852651e-02 5.482408349409903181e+00 7.881624468198291211e+00
1.326450231515690303e+00 1.981722984769572829e-02 5.547098316086944259e+00 8.106641561756601888e+00
1.343903524035633845e+00 2.003540785291833132e-02 5.611979945646726975e+00 8.344434251263848523e+00
1.361356816555576943e+00 2.025035916505466341e-02 5.677074264802891790e+00 8.596022987567234708e+00
1.378810109075520263e+00 2.046199344806157172e-02 5.742402636892196099e+00 8.862973683173301254e+00
1.396263401595463582e+00 2.067023763341429426e-02 5.807986801254788389e+00 9.145800646103820597e+00
1.413716694115406902e+00 2.087520707220517219e-02 5.873848910283743230e+00 9.437116080105333538e+00
1.431169986635350000e+00 2.107708053367629911e-02 5.940011568625441996e+00 9.733992598549544795e+00
1.448623279155293542e+00 2.127600369654009116e-02 6.006497877461903556e+00 1.003779215947632864e+01
1.466076571675236861e+00 2.147212122532713569e-02 6.073331477479969820e+00 1.034845302338525208e+01
1.483529864195180181e+00 2.166556985161961421e-02 6.140536593979410540e+00 1.066628089008873914e+01
1.500983156715123279e+00 2.185647819277160980e-02 6.208138087680709738e+00 1.099164670591849990e+01
1.518436449235066599e+00 2.204496885646283280e-02 6.276161506127493794e+00 1.132485694544208243e+01
1.535889741755009918e+00 2.223115835839437754e-02 6.344633137034717763e+00 1.166626941621298919e+01
1.553343034274953460e+00 2.241515755265709522e-02 6.413580066877419661e+00 1.201626606799623964e+01
1.570796326794896558e+00 2.259707213473622495e-02 6.483030243852058838e+00 1.237524756458550534e+01
1.588249619314839878e+00 2.277700302155360318e-02 6.553012542861805123e+00 1.274363983029293301e+01
1.605702911834782975e+00 2.295504664805198339e-02 6.623556835130408160e+00 1.312189990803716277e+01
1.623156204354726295e+00 2.313129532469805627e-02 6.694694063971335929e+00 1.351051232586218731e+01
1.640609496874669837e+00 2.330583752291890201e-02 6.766456326288287748e+00 1.390999479761634561e+01
1.658062789394613157e+00 2.347875813109902288e-02 6.838876958816593188e+00 1.432090137645278283e+01
1.675516081914556255e+00 2.365013873701848901e-02 6.911990631101586402e+00 1.474382165729912586e+01
1.692969374434499574e+00 2.382005781820311502e-02 6.985833445987321255e+00 1.517939016554949561e+01
1.710422666954442894e+00 2.398859100749814108e-02 7.060443048490427920e+00 1.562828222580955639e+01
1.727875959474386436e+00 2.415581124044437200e-02 7.135858743789719405e+00 1.609122709730557332e+01
1.745329251994329534e+00 2.432178899721487361e-02 7.212121624632183980e+00 1.656900246101049134e+01
1.762782544514272853e+00 2.448659242225938865e-02 7.289274709728910118e+00 1.706244975859039670e+01
1.780235837034215951e+00 2.465028754235300962e-02 7.367363094424531411e+00 1.757246896488762289e+01
1.797689129554159271e+00 2.481293836553948029e-02 7.446434114990488240e+00 1.810003581643196924e+01
1.815142422074102813e+00 2.497460707796348572e-02 7.526537528082011264e+00 1.864619739098290196e+01
1.832595714594046132e+00 2.513535412799385027e-02 7.607725707118394354e+00 1.921209119086657680e+01
1.850049007113989230e+00 2.529523840157082634e-02 7.690053857597717091e+00 1.979894260449552590e+01
1.867502299633932550e+00 2.545431730032211501e-02 7.773580253642053961e+00 2.040808517172639824e+01
1.884955592153875870e+00 2.561264689057797528e-02 7.858366498388309473e+00 2.104096221563568747e+01
1.902408884673818967e+00 2.577028198710443890e-02 7.944477811193682903e+00 2.169914660344033308e+01
1.919862177193762509e+00 2.592727626880771130e-02 8.031983345013390618e+00 2.238435000979269418e+01
1.937315469713705829e+00 2.608368237854864075e-02 8.120956538005600578e+00 2.309844016113365228e+01
1.954768762233649149e+00 2.623955200193569398e-02 8.211475504960430882e+00 2.384346172564258737e+01
1.972222054753592246e+00 2.639493598633848789e-02 8.303623472422060559e+00 2.462165031007603133e+01
1.989675347273535566e+00 2.654988438936045289e-02 8.397489262934792364e+00 2.543546602012453306e+01
2.007128639793478886e+00 2.670444660647407209e-02 8.493167838241006962e+00 2.628760811583403267e+01
2.024581932313422428e+00 2.685867141099123820e-02 8.590760910102140713e+00 2.718106044829182011e+01
2.042035224833365525e+00 2.701260706586322211e-02 8.690377622724412277e+00 2.811911415006155224e+01
2.059488517353308623e+00 2.716630138228027028e-02 8.792135329017876089e+00 2.910541994522785814e+01
2.076941809873252165e+00 2.731980179613443041e-02 8.896160462658764700e+00 3.014403211635931612e+01
2.094395102393195263e+00 2.747315545831237674e-02 9.002589533233736674e+00 3.123946383746179478e+01
2.111848394913138804e+00 2.762640927667943391e-02 9.111570257283284846e+00 3.239676291421175591e+01
2.129301687433081902e+00 2.777961002743264962e-02 9.223262851203998025e+00 3.362157650007151943e+01
2.146754979953025444e+00 2.793280438754882494e-02 9.337841515475204801e+00 3.492026100725899340e+01
2.164208272472968542e+00 2.808603903663985449e-02 9.455496144194528441e+00 3.629997832739938701e+01
2.181661564992911639e+00 2.823936071210278453e-02 9.576434302548628708e+00 3.776883877156959812e+01
2.199114857512855181e+00 2.839281627838613833e-02 9.700883524569654526e+00 3.933605788271248116e+01
2.216568150032798723e+00 2.854645281840081927e-02 9.829093962952772046e+00 4.101213310904438458e+01
2.234021442552741821e+00 2.870031767269384110e-02 9.961341654606535201e+00 4.280914071147768851e+01
2.251474735072684918e+00 2.885445855379214011e-02 1.009769709469188825e+01 4.466290582305767032e+01
2.268928027592628460e+00 2.900892358200216070e-02 1.023786031217519010e+01 4.644971933543452280e+01
2.286381320112572002e+00 2.916376139226059538e-02 1.038156126423792536e+01 4.817428750376340929e+01
2.303834612632515100e+00 2.931902119662807907e-02 1.052849656210111640e+01 4.981997061977357077e+01
2.321287905152458197e+00 2.947475286409446601e-02 1.067838201785727215e+01 5.138756238612608485e+01
2.338741197672401295e+00 2.963100702146760287e-02 1.083091685176795593e+01 5.286554069533126921e+01
2.356194490192344837e+00 2.978783510777873594e-02 1.098582045962889353e+01 5.425505292250132072e+01
2.373647782712288379e+00 2.994528950551023777e-02 1.114280094086052841e+01 5.554631306479685549e+01
2.391101075232231477e+00 3.010342358787217870e-02 1.130157527822144559e+01 5.673666609792127957e+01
2.408554367752174574e+00 3.026229186100024698e-02 1.146184724396754007e+01 5.781559630195195609e+01
2.426007660272118116e+00 3.042195002662590256e-02 1.162332052285060158e+01 5.877731555346932169e+01
2.443460952792061214e+00 3.058245511969904726e-02 1.178571047622902235e+01 5.962056836084994416e+01
2.460914245312004311e+00 3.074386560015016090e-02 1.194873625453499955e+01 6.034155967519107833e+01
2.478367537831947853e+00 3.090624148246444089e-02 1.211209597807574845e+01 6.092741798464382441e+01
2.495820830351891395e+00 3.106964445965018293e-02 1.227549990617248099e+01 6.137785671247449670e+01
2.513274122871834493e+00 3.123413803007341755e-02 1.243866045367684947e+01 6.168930021462337976e+01
2.530727415391777591e+00 3.139978765117852622e-02 1.260128704333471106e+01 6.185659597304474744e+01
2.548180707911721132e+00 3.156666087337037241e-02 1.276310095960952751e+01 6.188072966287508336e+01
2.565634000431664674e+00 3.173482751910874228e-02 1.292376263622749200e+01 6.173499400645948043e+01
2.583087292951607772e+00 3.190435983587031066e-02 1.308303471127280027e+01 6.145619095398858889e+01
2.600540585471550870e+00 3.207533269558287409e-02 1.324064980878421949e+01 6.103092368679508439e+01
2.617993877991494411e+00 3.224782378109208175e-02 1.339628312360665952e+01 6.043523764349856009e+01
2.635447170511437509e+00 3.242191380005288864e-02 1.354962057650056018e+01 5.967212592891623757e+01
2.652900463031380607e+00 3.259768672171978188e-02 1.370037219071007861e+01 5.875060855319800623e+01
2.670353755551324149e+00 3.277523000018708194e-02 1.384826945457093217e+01 5.767949029723926202e+01
2.687807048071267690e+00 3.295463487702450511e-02 1.399304200269744491e+01 5.645912147102956880e+01
2.705260340591210788e+00 3.313599662173931371e-02 1.413439279894548051e+01 5.508073601065020597e+01
2.722713633111153886e+00 3.331941488939176021e-02 1.427199995798838472e+01 5.353690756148213836e+01
2.740166925631096984e+00 3.350499402943163396e-02 1.440556315257696696e+01 5.183915159032221709e+01
2.757620218151040525e+00 3.369284347170665300e-02 1.453488993771674487e+01 5.003343542679706957e+01
2.775073510670984067e+00 3.388307810583900820e-02 1.465968043240662944e+01 4.808243203187889492e+01
2.792526803190927165e+00 3.407581873155785673e-02 1.478005512077024619e+01 4.615385372243964213e+01
2.809980095710870263e+00 3.427119269626856257e-02 1.489603901248343654e+01 4.421522024026013042e+01
2.827433388230813804e+00 3.446933364946629802e-02 1.500773378316824491e+01 4.230032601429942929e+01
2.844886680750756902e+00 3.467034174633835258e-02 1.511523144339695612e+01 4.041757618885554137e+01
2.862339973270700000e+00 3.487421034669704878e-02 1.521857012018188193e+01 3.857060126010595269e+01
2.879793265790643542e+00 3.508092500998445662e-02 1.531788142128828412e+01 3.679561744554740699e+01
2.897246558310587083e+00 3.529047788857499202e-02 1.541319667157405604e+01 3.505350793404313947e+01
2.914699850830530625e+00 3.550283104618794094e-02 1.550462603712205123e+01 3.337784419049656748e+01
2.932153143350473723e+00 3.571797407361273352e-02 1.559235215333926128e+01 3.178946846375575674e+01
2.949606435870416821e+00 3.593590291720167446e-02 1.567667369676200906e+01 3.032827825992294279e+01
2.967059728390360362e+00 3.615658284966489361e-02 1.575786912436714360e+01 2.898919959366943644e+01
2.984513020910303460e+00 3.637999324399072976e-02 1.583618509249308559e+01 2.775668004800601096e+01
3.001966313430246558e+00 3.660612783726869407e-02 1.591184105659761983e+01 2.661745950419987139e+01
3.019419605950190100e+00 3.683497372271874598e-02 1.598503334310407453e+01 2.556264312908265168e+01
3.036872898470133197e+00 3.706650885898046116e-02 1.605593826262881763e+01 2.458471376713836420e+01
3.054326190990076295e+00 3.730070596016144685e-02 1.612471476395194614e+01 2.367666936750337214e+01
3.071779483510019837e+00 3.753754662320409052e-02 1.619150665506770892e+01 2.283098973825121192e+01
3.089232776029963379e+00 3.777701845647050277e-02 1.625644448467532044e+01 2.204138598623821821e+01
3.106686068549906921e+00 3.801910561179382836e-02 1.631964714169754060e+01 2.130317611528832700e+01
3.124139361069850018e+00 3.826378982205125290e-02 1.638122321611736254e+01 2.061210690265174605e+01
3.141592653589793116e+00 3.851105258615849375e-02 1.644127215383585039e+01 1.996420551114966813e+01
3.159045946109736214e+00 3.876087673959667523e-02 1.649988528965795709e+01 1.935581496468805085e+01
3.176499238629679756e+00 3.901324779884283306e-02 1.655714673123319614e+01 1.878357393742246728e+01
3.193952531149622853e+00 3.926815053398931277e-02 1.661313407201527426e+01 1.824470808863122784e+01
3.211405823669565951e+00 3.952556449347591205e-02 1.666791910692677092e+01 1.773704370959956478e+01
3.228859116189509493e+00 3.978546602058107007e-02 1.672156839316632926e+01 1.725846360141516200e+01
3.246312408709452590e+00 4.004783487556713012e-02 1.677414374007986453e+01 1.680661422940369221e+01
3.263765701229396576e+00 4.031265525463026411e-02 1.682570271620188862e+01 1.637932865382146375e+01
3.281218993749339674e+00 4.057991263028266904e-02 1.687629897018743463e+01 1.597481654055758327e+01
3.298672286269282772e+00 4.084959085648017657e-02 1.692598267475294449e+01 1.559164665517919879e+01
3.316125578789226314e+00 4.112167211301959169e-02 1.697480074979800690e+01 1.522848555278071814e+01
3.333578871309169411e+00 4.139613797839047926e-02 1.702279722858759214e+01 1.488407902777403358e+01
3.351032163829112509e+00 4.167297044594550637e-02 1.707001344404355692e+01 1.455720565814706191e+01
3.368485456349056051e+00 4.195215196388674822e-02 1.711648828657971677e+01 1.424675429371183455e+01
3.385938748868999149e+00 4.223366540504868566e-02 1.716225842151815684e+01 1.395171187135958313e+01
3.403392041388942246e+00 4.251749369723359373e-02 1.720735840601896172e+01 1.367114587903130207e+01
3.420845333908885788e+00 4.280361957568439707e-02 1.725182095610416511e+01 1.340423937664935394e+01
3.438298626428828886e+00 4.309202557853366450e-02 1.729567699829389227e+01 1.315021068638388613e+01
