# angles(rad), pulling distance(m),                                     elastic band force(n), cable force(n)
0.000000000000000000e+00 2.095885820976910120e-04 8.024718164137586984e-02 1.536250232940269411e-01
1.745329251994329547e-02 4.216003171155390710e-04 1.615691151676760806e-01 3.098675845104232329e-01
3.490658503988659095e-02 6.361333743703250941e-04 2.439111226614948946e-01 4.680894344913483773e-01
5.235987755982988295e-02 8.532866528552960576e-04 3.272179982552349542e-01 6.276559410676388895e-01
6.981317007977318190e-02 1.073156987710969460e-03 4.114342979766744124e-01 7.879524579072515467e-01
8.726646259971647390e-02 1.295790222938811081e-03 4.965055471521479524e-01 9.486083035975891864e-01
1.047197551196597659e-01 1.521140503896621513e-03 5.823785547556702413e-01 1.109619163732589397e+00
1.221730476396030718e-01 1.749110539602865763e-03 6.690012502420803475e-01 1.271015539393542282e+00
1.396263401595463638e-01 1.979607960005725070e-03 7.563217883093736882e-01 1.432606607739129956e+00
1.570796326794896558e-01 2.212548496609394611e-03 8.442882434610095022e-01 1.594163149667447321e+00
1.745329251994329478e-01 2.447850715780135796e-03 9.328486097451380576e-01 1.755474615960235685e+00
1.919862177193762398e-01 2.685433957450301425e-03 1.021950800754600985e+00 1.916340033307674107e+00
2.094395102393195318e-01 2.925218293215021102e-03 1.111542649626930723e+00 2.076556851867077391e+00
2.268928027592628516e-01 3.167123829986003957e-03 1.201571909044351072e+00 2.235927100966933700e+00
2.443460952792061436e-01 3.411070091198602910e-03 1.291986251233776750e+00 2.394258605203233525e+00
2.617993877991494078e-01 3.656975995277724194e-03 1.382730996999113948e+00 2.551292398904002390e+00
2.792526803190927276e-01 3.904759855637828653e-03 1.473746542276112903e+00 2.706670340643158479e+00
2.967059728390360474e-01 4.154339380682932174e-03 1.564988658952073619e+00 2.860668914865015733e+00
3.141592653589793116e-01 4.405631673806605260e-03 1.656401206620849331e+00 3.012743693343735707e+00
3.316125578789225758e-01 4.658553233391972588e-03 1.747940376098046755e+00 3.163135056299333669e+00
3.490658503988658956e-01 4.913019815493543593e-03 1.839544391452057726e+00 3.311036979537418823e+00
3.665191429188092154e-01 5.168946457816686255e-03 1.931162842461826123e+00 3.456657475515482414e+00
3.839724354387524796e-01 5.426249635408074423e-03 2.022742927888212527e+00 3.599702340749896479e+00
4.014257279586957439e-01 5.684847833907841902e-03 2.114233992916303873e+00 3.740039970361199284e+00
4.188790204786390636e-01 5.944661549549579843e-03 2.205582073685047551e+00 3.877310497473755113e+00
4.363323129985823834e-01 6.205612249319517396e-03 2.296736197734659424e+00 4.011427761299636963e+00
4.537856055185257032e-01 6.467615377114572552e-03 2.387640640705340100e+00 4.142071590596759556e+00
4.712388980384689674e-01 6.730581283458352514e-03 2.478244339504353633e+00 4.269338691253573792e+00
4.886921905584122872e-01 6.994439098651608448e-03 2.568493815611084141e+00 4.392616172321779366e+00
5.061454830783556069e-01 7.259116861224504391e-03 2.658337374983301693e+00 4.511797467588919197e+00
5.235987755982988157e-01 7.524511652966051241e-03 2.747724351564495127e+00 4.627271896579972399e+00
5.410520681182421354e-01 7.790545107745618265e-03 2.836597951285944053e+00 4.738100911070662669e+00
5.585053606381854552e-01 8.057140097441002277e-03 2.924907535977031792e+00 4.844377796767651567e+00
5.759586531581287749e-01 8.324220461970727528e-03 3.012600892208847636e+00 4.945797563402567043e+00
5.934119456780720947e-01 8.591690815223287231e-03 3.099626648063126488e+00 5.042565440122805498e+00
6.108652381980153034e-01 8.859464860228632305e-03 3.185929330276435323e+00 5.134072022167393001e+00
6.283185307179586232e-01 9.127474371987831167e-03 3.271457161416893467e+00 5.219975848027071486e+00
6.457718232379019430e-01 9.395642922612619172e-03 3.356158296771333927e+00 5.300219162602300749e+00
6.632251157578451517e-01 9.663865957447892452e-03 3.439979368085559930e+00 5.375055802139574013e+00
6.806784082777884715e-01 9.932087973600975048e-03 3.522901831987174770e+00 5.445632394045611946e+00
6.981317007977317912e-01 1.020020668868915938e-02 3.604967735597746525e+00 5.517051180322905424e+00
7.155849933176750000e-01 1.046814239528744139e-02 3.686218859352315746e+00 5.589203255703430351e+00
7.330382858376184307e-01 1.073582955484861032e-02 3.766695516474220184e+00 5.662039674574691261e+00
7.504915783575616395e-01 1.100317715209593247e-02 3.846436421409824558e+00 5.736320882972914426e+00
7.679448708775049592e-01 1.127009312380850177e-02 3.925478739249389726e+00 5.812296210478042013e+00
7.853981633974482790e-01 1.153649954446837878e-02 4.003858285560521146e+00 5.889884244136789349e+00
8.028514559173914877e-01 1.180231673764411786e-02 4.081609563186323619e+00 5.969334686669784062e+00
8.203047484373349185e-01 1.206746386516439548e-02 4.158765882331777242e+00 6.050887118207196380e+00
8.377580409572781273e-01 1.233186007844409154e-02 4.235359432333684282e+00 6.134755305918994317e+00
8.552113334772214470e-01 1.259542518351148589e-02 4.311421365091440805e+00 6.221139211089578680e+00
8.726646259971647668e-01 1.285807911158663719e-02 4.386981867132129231e+00 6.310253091456783814e+00
8.901179185171079755e-01 1.311973027297552372e-02 4.462070229104785568e+00 6.402599987172544971e+00
9.075712110370514063e-01 1.338029382624090873e-02 4.536714910868195894e+00 6.498254198049089325e+00
9.250245035569946150e-01 1.363969466086929934e-02 4.610943602862972668e+00 6.597209160728384703e+00
9.424777960769379348e-01 1.389785926957428849e-02 4.684783283767912643e+00 6.699657720658234616e+00
9.599310885968812546e-01 1.415468989760336645e-02 4.758260274952260005e+00 6.806482757888058011e+00
9.773843811168245743e-01 1.441010889274347943e-02 4.831400292054366830e+00 6.917431880783517784e+00
9.948376736367677831e-01 1.466404775022781166e-02 4.904228494446228659e+00 7.032522491984138036e+00
1.012290966156711214e+00 1.491640146382256470e-02 4.976769532548865449e+00 7.153055589037581541e+00
1.029744258676654312e+00 1.516710484152367436e-02 5.049047592422537534e+00 7.278229905326988103e+00
1.047197551196597631e+00 1.541606768025934743e-02 5.121086438372637772e+00 7.409080787007733093e+00
1.064650843716540951e+00 1.566321036913924727e-02 5.192909454089682519e+00 7.545649418735555614e+00
1.082104136236484271e+00 1.590845408796721580e-02 5.264539683090046829e+00 7.688274033753556225e+00
1.099557428756427591e+00 1.615170948675631254e-02 5.335999867007095609e+00 7.837678706738029355e+00
1.117010721276370910e+00 1.639290527988097185e-02 5.407312482402675258e+00 7.993704831783759346e+00
1.134464013796314230e+00 1.663194569848813753e-02 5.478499776804746091e+00 8.157607377980619745e+00
1.151917306316257550e+00 1.686876533808112297e-02 5.549583804836031753e+00 8.328844081996777504e+00
1.169370598836200648e+00 1.710326267511280002e-02 5.620586462705274400e+00 8.509192101871379421e+00
1.186823891356144189e+00 1.733537867378784000e-02 5.691529521730253727e+00 8.697688162542393187e+00
1.204277183876087287e+00 1.756500494071428983e-02 5.762434661817565917e+00 8.896766088851563836e+00
1.221730476396030607e+00 1.779208114974143232e-02 5.833323505477864934e+00 9.105259414259876394e+00
1.239183768915973927e+00 1.801651039287071460e-02 5.904217650548105212e+00 9.325310213765474643e+00
1.256637061435917246e+00 1.823821648764971382e-02 5.975138702581432426e+00 9.556866789218000591e+00
1.274090353955860566e+00 1.845712752078890878e-02 6.046108307953404370e+00 9.800554921752540949e+00
1.291543646475803886e+00 1.867313925696752544e-02 6.117148187625320865e+00 1.005874678088908247e+01
1.308996938995747206e+00 1.888618469973193936e-02 6.188280170111427836e+00 1.033076866061504084e+01
1.326450231515690303e+00 1.909619258844556799e-02 6.259526224773530600e+00 1.061785226975947616e+01
1.343903524035633845e+00 1.930306764416485354e-02 6.330908496494503268e+00 1.092240504700091819e+01
1.361356816555576943e+00 1.950683315272183985e-02 6.402449341127612215e+00 1.123930730054993177e+01
1.378810109075520263e+00 1.970764303233421208e-02 6.474171360843346434e+00 1.156169823122673357e+01
1.396263401595463582e+00 1.990564013533263274e-02 6.546097440428037650e+00 1.188994986136561494e+01
1.413716694115406902e+00 2.010096114489556482e-02 6.618250785451573748e+00 1.222420807273979015e+01
1.431169986635350000e+00 2.029373531328282354e-02 6.690654961745530649e+00 1.256473741852957637e+01
1.448623279155293542e+00 2.048408544931567057e-02 6.763333935523762719e+00 1.291178929518971330e+01
1.466076571675236861e+00 2.067212832479446011e-02 6.836312115105785736e+00 1.326563455128660607e+01
1.483529864195180181e+00 2.085797513591522087e-02 6.909614394822016337e+00 1.362655845548590783e+01
1.500983156715123279e+00 2.104173191214395860e-02 6.983266201381066907e+00 1.399486271935452564e+01
1.518436449235066599e+00 2.122349989234999235e-02 7.057293541728927977e+00 1.437086637470912187e+01
1.535889741755009918e+00 2.140337587030624253e-02 7.131723053281177727e+00 1.475490694790672741e+01
1.553343034274953460e+00 2.158145251254149286e-02 7.206582056916155388e+00 1.514734177438521812e+01
1.570796326794896558e+00 2.175781865141061810e-02 7.281898613215989968e+00 1.554854946614650757e+01
1.588249619314839878e+00 2.193255955578829117e-02 7.357701582192794909e+00 1.595893150381361814e+01
1.605702911834782975e+00 2.210575718152989200e-02 7.434020686192210903e+00 1.637891384059065913e+01
1.623156204354726295e+00 2.227749040360985783e-02 7.510886576751708787e+00 1.680894874681171558e+01
1.640609496874669837e+00 2.244783523163237579e-02 7.588330905871538690e+00 1.724951684669924035e+01
1.658062789394613157e+00 2.261686501023183263e-02 7.666386402129699462e+00 1.770112935375301788e+01
1.675516081914556255e+00 2.278465060572557391e-02 7.745086952114853318e+00 1.816433052612709886e+01
1.692969374434499574e+00 2.295126058027598809e-02 7.824467687718669850e+00 1.863970036714273348e+01
1.710422666954442894e+00 2.311676135554434353e-02 7.904565079853815845e+00 1.912785749287965587e+01
1.727875959474386436e+00 2.328121736648134169e-02 7.985417039162522101e+00 1.962946230529549041e+01
1.745329251994329534e+00 2.344469120484797206e-02 8.067063024534295579e+00 2.014522067491648372e+01
1.762782544514272853e+00 2.360724375402451988e-02 8.149544160263264558e+00 2.067588793337989728e+01
1.780235837034215951e+00 2.376893431600987303e-02 8.232903362756163190e+00 2.122227327599442148e+01
1.797689129554159271e+00 2.392982073301283194e-02 8.317185477812943262e+00 2.178524441179917304e+01
1.815142422074102813e+00 2.408995950291542565e-02 8.402437429627447329e+00 2.236573289874434778e+01
1.832595714594046132e+00 2.424940588714997666e-02 8.488708382796311014e+00 2.296474036937319951e+01
1.850049007113989230e+00 2.440821401312925909e-02 8.576049918781517789e+00 2.358334524676338262e+01
1.867502299633932550e+00 2.456643697367159526e-02 8.664516228519749674e+00 2.422270995868087695e+01
1.884955592153875870e+00 2.472412692334043094e-02 8.754164323207096032e+00 2.488408911930071099e+01
1.902408884673818967e+00 2.488133516823269956e-02 8.845054265192565879e+00 2.556883926706893817e+01
1.919862177193762509e+00 2.503811225213955702e-02 8.937249421320489162e+00 2.627842938583946619e+01
1.937315469713705829e+00 2.519450804249465103e-02 9.030816741320940366e+00 2.701445217873462923e+01
1.954768762233649149e+00 2.535057181340188634e-02 9.125827064672877853e+00 2.777863738739915789e+01
1.972222054753592246e+00 2.550635232363660659e-02 9.222355461050234737e+00 2.857286775270624446e+01
1.989675347273535566e+00 2.566189789344777358e-02 9.320481605430002148e+00 2.939919551594092795e+01
2.007128639793478886e+00 2.581725648310190940e-02 9.420290194008982709e+00 3.025986108529977514e+01
2.024581932313422428e+00 2.597247576690069407e-02 9.521871409707197031e+00 3.115731659907677198e+01
2.042035224833365525e+00 2.612760320493687227e-02 9.625321436754189719e+00 3.209425023624810791e+01
2.059488517353308623e+00 2.628268611708923369e-02 9.730743040557969792e+00 3.307361601935380691e+01
2.076941809873252165e+00 2.643777175670884716e-02 9.838246213138328145e+00 3.409866584466505657e+01
2.094395102393195263e+00 2.659290738079661889e-02 9.947948901799120947e+00 3.517298968578936069e+01
2.111848394913138804e+00 2.674814032128341318e-02 1.005997782882399250e+01 3.630055961456902480e+01
2.129301687433081902e+00 2.690351805994774595e-02 1.017446941777343916e+01 3.748578079370127369e+01
2.146754979953025444e+00 2.705908830035596777e-02 1.029157084439595238e+01 3.873355292448753318e+01
2.164208272472968542e+00 2.721489903980477132e-02 1.041144123212176886e+01 4.004934132570010519e+01
2.181661564992911639e+00 2.737099864564368490e-02 1.053425301675323311e+01 4.143925943291318958e+01
2.199114857512855181e+00 2.752743593254207075e-02 1.066019351021339290e+01 4.291016731609285983e+01
2.216568150032798723e+00 2.768426023866369518e-02 1.078946669890658683e+01 4.446978912136786022e+01
2.234021442552741821e+00 2.784152150482275753e-02 1.092229531330185033e+01 4.612684953885460004e+01
2.251474735072684918e+00 2.799927035910305950e-02 1.105892338715254475e+01 4.789129557049768238e+01
2.268928027592628460e+00 2.815755820116425806e-02 1.119959806059230623e+01 4.976692395684037251e+01
2.286381320112572002e+00 2.831643728866775969e-02 1.134407121718159139e+01 5.157739143245458990e+01
2.303834612632515100e+00 2.847596082882978760e-02 1.149201682895380827e+01 5.328973575089064951e+01
2.321287905152458197e+00 2.863618307543729091e-02 1.164312525419128974e+01 5.490418338451878810e+01
2.338741197672401295e+00 2.879715942736073980e-02 1.179707458427799516e+01 5.641051333105626497e+01
2.356194490192344837e+00 2.895894653159814328e-02 1.195355417837019019e+01 5.780705806581835304e+01
2.373647782712288379e+00 2.912160239267745296e-02 1.211225531442384451e+01 5.908882304689001330e+01
2.391101075232231477e+00 2.928518648941241115e-02 1.227285563029117732e+01 6.024499111342129964e+01
2.408554367752174574e+00 2.944975989595460114e-02 1.243504666661833191e+01 6.127518254652889595e+01
2.426007660272118116e+00 2.961538540965869340e-02 1.259851521450704759e+01 6.217221434098592425e+01
2.443460952792061214e+00 2.978212768693263082e-02 1.276293145849102473e+01 6.292445104316722393e+01
2.460914245312004311e+00 2.995005338850201260e-02 1.292799186179751381e+01 6.353701460552243674e+01
2.478367537831947853e+00 3.011923133438410699e-02 1.309339542890688080e+01 6.400640160934560186e+01
2.495820830351891395e+00 3.028973266806820816e-02 1.325880714643306924e+01 6.431509991890742128e+01
2.513274122871834493e+00 3.046163103209921855e-02 1.342392991944521619e+01 6.447404387803362624e+01
2.530727415391777591e+00 3.063500275631179243e-02 1.358841299332171637e+01 6.445872152440790614e+01
2.548180707911721132e+00 3.080992705995719630e-02 1.375196445425318537e+01 6.428934774352688919e+01
2.565634000431664674e+00 3.098648626909856693e-02 1.391427128426126991e+01 6.395535172035938132e+01
2.583087292951607772e+00 3.116476605082335247e-02 1.407506444009407076e+01 6.347253760290244884e+01
2.600540585471550870e+00 3.134485566599097550e-02 1.423398940572280225e+01 6.280585015850770247e+01
2.617993877991494411e+00 3.152684824230522070e-02 1.439071606361780553e+01 6.196430862851107690e+01
2.635447170511437509e+00 3.171084107008469849e-02 1.454493071808273008e+01 6.095458969720775855e+01
2.652900463031380607e+00 3.189693592310616221e-02 1.469632589811084245e+01 5.978007636889626752e+01
2.670353755551324149e+00 3.208523940772535499e-02 1.484459258506553248e+01 5.844179055504103104e+01
2.687807048071267690e+00 3.227586334201808238e-02 1.498940730839215263e+01 5.693636741495068776e+01
2.705260340591210788e+00 3.246892517128635580e-02 1.513046213837121812e+01 5.527308977962111669e+01
2.722713633111153886e+00 3.266454842791646079e-02 1.526748405853768631e+01 5.346961342554941155e+01
2.740166925631096984e+00 3.286286314333976971e-02 1.540009209966637727e+01 5.148826304137607934e+01
2.757620218151040525e+00 3.306400696475175760e-02 1.552804018253934082e+01 4.938712405341205880e+01
2.775073510670984067e+00 3.326812293600204390e-02 1.565124436230416194e+01 4.723537095468135050e+01
2.792526803190927165e+00 3.347536056914336006e-02 1.576982916409765600e+01 4.511878555538707047e+01
2.809980095710870263e+00 3.368571255855989238e-02 1.588381486383651975e+01 4.303566980276579557e+01
2.827433388230813804e+00 3.389913826495093846e-02 1.599334403272154326e+01 4.103858221245918259e+01
2.844886680750756902e+00 3.411561109835467565e-02 1.609847611474129891e+01 3.909188706675926284e+01
2.862339973270700000e+00 3.433510095223436115e-02 1.619929286261572798e+01 3.720354256487770073e+01
2.879793265790643542e+00 3.455757659840209134e-02 1.629592378943661046e+01 3.539017070633703099e+01
2.897246558310587083e+00 3.478299178813481357e-02 1.638839295770689120e+01 3.361399619702908126e+01
2.914699850830530625e+00 3.501130124461376142e-02 1.647685302285658437e+01 3.192034868687543891e+01
2.932153143350473723e+00 3.524247268536419286e-02 1.656161076234642238e+01 3.036111826725360885e+01
2.949606435870416821e+00 3.547647176940480623e-02 1.664298472537870666e+01 2.893826762917542794e+01
2.967059728390360362e+00 3.571326359497595943e-02 1.672125800676961305e+01 2.763667474620110553e+01
2.984513020910303460e+00 3.595281259009697888e-02 1.679668035617331157e+01 2.644229615752676210e+01
3.001966313430246558e+00 3.619508296857540386e-02 1.686947353513778580e+01 2.534322631169478512e+01
3.019419605950190100e+00 3.644003926895190287e-02 1.693983538809530032e+01 2.432920085888189021e+01
3.036872898470133197e+00 3.668764613794202323e-02 1.700794315619594954e+01 2.339137547103834791e+01
3.054326190990076295e+00 3.693787064791517055e-02 1.707395626523792842e+01 2.252187319371865115e+01
3.071779483510019837e+00 3.719067863756966852e-02 1.713801864469564507e+01 2.171415260788229062e+01
3.089232776029963379e+00 3.744602087720202283e-02 1.720026068270536612e+01 2.096361496498749943e+01
3.106686068549906921e+00 3.770385761153844523e-02 1.726080090357944385e+01 2.026423236113954474e+01
3.124139361069850018e+00 3.796416020351411208e-02 1.731974738336246133e+01 1.961060263041430574e+01
3.141592653589793116e+00 3.822689859998348177e-02 1.737719892421000267e+01 1.899887620587092130e+01
3.159045946109736214e+00 3.849203450810111116e-02 1.743324611847616623e+01 1.842610717705220935e+01
3.176499238629679756e+00 3.875952613835206839e-02 1.748797227860019632e+01 1.788933676663666361e+01
3.193952531149622853e+00 3.902933565215219863e-02 1.754145413298305911e+01 1.738540428746453514e+01
3.211405823669565951e+00 3.930142941551535707e-02 1.759376261026292454e+01 1.691150360065362790e+01
3.228859116189509493e+00 3.957577345896145377e-02 1.764496333433701736e+01 1.646536384808266007e+01
3.246312408709452590e+00 3.985233208507336922e-02 1.769511722849052404e+01 1.604504348659247270e+01
3.263765701229396576e+00 4.013106737977286537e-02 1.774428089856501956e+01 1.564878916297109157e+01
3.281218993749339674e+00 4.041194159679729891e-02 1.779250711794346529e+01 1.527490420183140607e+01
3.298672286269282772e+00 4.069491854687588145e-02 1.783984508792250878e+01 1.492174629361770855e+01
3.316125578789226314e+00 4.097996294960200292e-02 1.788634088038203274e+01 1.458789552576459592e+01
3.333578871309169411e+00 4.126703968365658809e-02 1.793203757564982936e+01 1.427205272004663783e+01
3.351032163829112509e+00 4.155611373059194674e-02 1.797697566144236347e+01 1.397307857845899015e+01
3.368485456349056051e+00 4.184714987516149204e-02 1.802119315765251173e+01 1.368991541118487376e+01
3.385938748868999149e+00 4.214011244178324234e-02 1.806472584104827206e+01 1.342161218304901205e+01
3.403392041388942246e+00 4.243496528555638914e-02 1.810760749852224194e+01 1.316731784724089138e+01
3.420845333908885788e+00 4.273167179226131790e-02 1.814986996885162185e+01 1.292621367760429330e+01
3.438298626428828886e+00 4.303019487835959417e-02 1.819154339356133576e+01 1.269757598773210816e+01
