# angles(rad), pulling distance(m),                                     elastic band force(n), cable force(n)
0.000000000000000000e+00 2.333898626232180527e-04 7.205463788013574677e-02 1.112274282542252135e-01
1.745329251994329547e-02 4.692533675709026852e-04 1.442379396049003615e-01 2.207117781313439608e-01
3.490658503988659095e-02 7.075226233506357910e-04 2.165210609886553395e-01 3.284271418560755773e-01
5.235987755982988295e-02 9.481207338248934247e-04 2.888751871642759594e-01 4.343615105681877808e-01
6.981317007977318190e-02 1.190957780620702493e-03 3.612713358042632383e-01 5.385227186575959335e-01
8.726646259971647390e-02 1.435973056615769258e-03 4.336727433408141263e-01 6.407461106372922544e-01
1.047197551196597659e-01 1.683108761944370878e-03 5.060537259455099024e-01 7.410638192890924847e-01
1.221730476396030718e-01 1.932277991832803644e-03 5.783880122916554845e-01 8.395355260963706101e-01
1.396263401595463638e-01 2.183398047619608800e-03 6.506487435542794850e-01 9.361329953720514130e-01
1.570796326794896558e-01 2.436397115718024007e-03 7.228084734101339892e-01 1.030787673860300790e+00
1.745329251994329478e-01 2.691205129618054470e-03 7.948391680376950541e-01 1.123450093163279373e+00
1.919862177193762398e-01 2.947752049406062239e-03 8.667122061171622649e-01 1.214071083871764545e+00
2.094395102393195318e-01 3.205967190694354076e-03 9.383983788304588458e-01 1.302599605954402717e+00
2.268928027592628516e-01 3.465778816354394762e-03 1.009867941066131314e+00 1.388983643062144724e+00
2.443460952792061436e-01 3.727114130740005749e-03 1.081091087672916728e+00 1.473178418569994985e+00
2.617993877991494078e-01 3.989899279687364290e-03 1.152038212275771967e+00 1.555144933436717780e+00
2.792526803190927276e-01 4.254059350515003446e-03 1.222679909855702629e+00 1.634845572203073916e+00
2.967059728390360474e-01 4.519518726039293936e-03 1.292987006230668090e+00 1.712242445366554788e+00
3.141592653589793116e-01 4.786202410482605189e-03 1.362930781922991219e+00 1.787295782529354948e+00
3.316125578789225758e-01 5.054036022873761511e-03 1.432483074888191821e+00 1.859969732753475880e+00
3.490658503988658956e-01 5.322945706894272218e-03 1.501616157965723453e+00 1.930227150006428749e+00
3.665191429188092154e-01 5.592858130878342916e-03 1.570301556004413790e+00 1.997995976304217880e+00
3.839724354387524796e-01 5.863700487812865958e-03 1.638509386342312801e+00 2.063177478877679771e+00
4.014257279586957439e-01 6.135400495337428248e-03 1.706208944033640762e+00 2.125682510877791032e+00
4.188790204786390636e-01 6.407886395744306039e-03 1.773370536276303033e+00 2.185478013260432117e+00
4.363323129985823834e-01 6.681086857091210647e-03 1.839965734169386691e+00 2.242545301340352459e+00
4.537856055185257032e-01 6.954929771177555294e-03 1.905966435293116046e+00 2.296848203418853540e+00
4.712388980384689674e-01 7.229341452386124460e-03 1.971344334810969379e+00 2.348339386806249429e+00
4.886921905584122872e-01 7.504246629870811765e-03 2.036070496766824611e+00 2.396954286803277601e+00
5.061454830783556069e-01 7.779569685213562173e-03 2.100116012562213363e+00 2.442639848799778690e+00
5.235987755982988157e-01 8.055237325141441362e-03 2.163470560044078006e+00 2.486067975874661329e+00
5.410520681182421354e-01 8.331178795725783723e-03 2.226157219394320208e+00 2.528622446215470720e+00
5.585053606381854552e-01 8.607323338236032989e-03 2.288211306608943563e+00 2.570988053847331756e+00
5.759586531581287749e-01 8.883597920098334350e-03 2.349664096124028934e+00 2.613222905939119656e+00
5.934119456780720947e-01 9.159927906858413016e-03 2.410544709899244076e+00 2.655438217038017967e+00
6.108652381980153034e-01 9.436238470522495536e-03 2.470881846400010406e+00 2.697796516834416014e+00
6.283185307179586232e-01 9.712454848086336107e-03 2.530703404194125650e+00 2.740435257478012865e+00
6.457718232379019430e-01 9.988502643918812166e-03 2.590036085526869147e+00 2.783463371613603687e+00
6.632251157578451517e-01 1.026431181824370188e-02 2.648905537490002793e+00 2.826947611076498834e+00
6.806784082777884715e-01 1.053982010632397749e-02 2.707336582173691664e+00 2.870920978621956277e+00
6.981317007977317912e-01 1.081494994076572826e-02 2.765353250106032501e+00 2.915652196581174138e+00
7.155849933176750000e-01 1.108960795888811607e-02 2.822978823883377064e+00 2.961424093854141404e+00
7.330382858376184307e-01 1.136373630511248664e-02 2.880235857026912427e+00 3.007966199015568165e+00
7.504915783575616395e-01 1.163727313535415850e-02 2.937146258453783076e+00 3.055423514090482850e+00
7.679448708775049592e-01 1.191012007539514472e-02 2.993731332578267512e+00 3.104313893666624580e+00
7.853981633974482790e-01 1.218220921393871684e-02 3.050011821185929950e+00 3.154410287641847610e+00
8.028514559173914877e-01 1.245348240908157426e-02 3.106007958177355199e+00 3.205706465597609522e+00
8.203047484373349185e-01 1.272386365961992484e-02 3.161739486390414466e+00 3.258520571179891245e+00
8.377580409572781273e-01 1.299326528692164827e-02 3.217225721240456693e+00 3.313115509402936976e+00
8.552113334772214470e-01 1.326161706144119920e-02 3.272485571038559637e+00 3.369403117341310150e+00
8.726646259971647668e-01 1.352885742044522728e-02 3.327537573452552522e+00 3.427394110849906195e+00
8.901179185171079755e-01 1.379491570712246262e-02 3.382399941078730876e+00 3.487327369948491906e+00
9.075712110370514063e-01 1.405970997122634944e-02 3.437090572180942605e+00 3.549484978161891569e+00
9.250245035569946150e-01 1.432315938305780620e-02 3.491627101708362435e+00 3.613999803743749517e+00
9.424777960769379348e-01 1.458519351703043906e-02 3.546026921783287822e+00 3.680879731226163631e+00
9.599310885968812546e-01 1.484574436109265504e-02 3.600307203779028686e+00 3.750240974958368945e+00
9.773843811168245743e-01 1.510474137960332239e-02 3.654484944255181222e+00 3.822278303093832097e+00
9.948376736367677831e-01 1.536211545276550128e-02 3.708576972909262359e+00 3.897137917191608292e+00
1.012290966156711214e+00 1.561779465732751095e-02 3.762599989285926760e+00 3.975039761020774609e+00
1.029744258676654312e+00 1.587169345313352992e-02 3.816570593069735562e+00 4.056392206146447243e+00
1.047197551196597631e+00 1.612373548831204026e-02 3.870505293244103751e+00 4.141264419773807326e+00
1.064650843716540951e+00 1.637384973006851541e-02 3.924420552709502630e+00 4.229790172378296020e+00
1.082104136236484271e+00 1.662196535425512767e-02 3.978332803405661977e+00 4.322196075984451547e+00
1.099557428756427591e+00 1.686801124894024215e-02 4.032258465984185136e+00 4.418732727573759789e+00
1.117010721276370910e+00 1.711191660814194437e-02 4.086213991823445468e+00 4.519659292075132839e+00
1.134464013796314230e+00 1.735361007123248367e-02 4.140215870135925513e+00 4.625268527074867464e+00
1.151917306316257550e+00 1.759302200226555563e-02 4.194280661863205140e+00 4.735831448560176682e+00
1.169370598836200648e+00 1.783008073449124375e-02 4.248425030921574752e+00 4.851715240171857957e+00
1.186823891356144189e+00 1.806469613983817044e-02 4.302665752803225274e+00 4.973665222503233174e+00
1.204277183876087287e+00 1.829679436603369458e-02 4.357019760169640321e+00 5.101751271902682738e+00
1.221730476396030607e+00 1.852630537105531480e-02 4.411504160244438921e+00 5.236310075322085922e+00
1.239183768915973927e+00 1.875315918730898271e-02 4.466136256329664711e+00 5.377788857928539556e+00
1.256637061435917246e+00 1.897728588324504653e-02 4.520933594335327932e+00 5.526675999824161245e+00
1.274090353955860566e+00 1.919861935460374230e-02 4.575913971682291859e+00 5.683403312791595496e+00
1.291543646475803886e+00 1.941708937704952204e-02 4.631095480068298187e+00 5.848647590385262163e+00
1.308996938995747206e+00 1.963260385242099337e-02 4.686496538691812042e+00 6.023652681135104991e+00
1.326450231515690303e+00 1.984508513012672032e-02 4.742135910784961439e+00 6.208769716216287371e+00
1.343903524035633845e+00 2.005447014791377283e-02 4.798032761421917591e+00 6.404348397295080098e+00
1.361356816555576943e+00 2.026068749194301008e-02 4.854206672973591985e+00 6.611465625861871587e+00
1.378810109075520263e+00 2.046372476325063888e-02 4.910677691562239211e+00 6.829065654229185434e+00
1.396263401595463582e+00 2.066371315853536908e-02 4.967466372282340892e+00 7.052805774098898084e+00
1.413716694115406902e+00 2.086080219717732775e-02 5.024593801869305487e+00 7.282041928796427754e+00
1.431169986635350000e+00 2.105513292085733554e-02 5.082081669288696979e+00 7.517031576017458860e+00
1.448623279155293542e+00 2.124683912644480255e-02 5.139952286582579077e+00 7.758022510907016667e+00
1.466076571675236861e+00 2.143604761589552529e-02 5.198228657189644331e+00 8.005293541692424242e+00
1.483529864195180181e+00 2.162287881370632270e-02 5.256934520955285350e+00 8.259136734878310904e+00
1.500983156715123279e+00 2.180744724410318275e-02 5.316094406006836692e+00 8.519862614270692802e+00
1.518436449235066599e+00 2.198986195531820245e-02 5.375733704268364832e+00 8.787805096089625678e+00
1.535889741755009918e+00 2.217022694812189124e-02 5.435878711985940193e+00 9.063315502694148762e+00
1.553343034274953460e+00 2.234864150675344718e-02 5.496556728264755165e+00 9.346775319043029384e+00
1.570796326794896558e+00 2.252520057584358679e-02 5.557796097122387202e+00 9.638585176653217346e+00
1.588249619314839878e+00 2.269999504760864331e-02 5.619626320291666310e+00 9.939180169800179598e+00
1.605702911834782975e+00 2.287311205163257768e-02 5.682078111016839905e+00 1.024902074391995832e+01
1.623156204354726295e+00 2.304463523829373278e-02 5.745183518891265884e+00 1.056860463971230502e+01
1.640609496874669837e+00 2.321464498995941261e-02 5.808975999388837685e+00 1.089846272114406034e+01
1.658062789394613157e+00 2.338321869333204878e-02 5.873490554788825868e+00 1.123916791904972889e+01
1.675516081914556255e+00 2.355043089995815728e-02 5.938763820835111673e+00 1.159133411026019012e+01
1.692969374434499574e+00 2.371635357614151202e-02 6.004834228498881821e+00 1.195562458840347553e+01
1.710422666954442894e+00 2.388105623204547778e-02 6.071742114177959948e+00 1.233275277252178270e+01
1.727875959474386436e+00 2.404460614661706880e-02 6.139529900046493793e+00 1.272348992929727984e+01
1.745329251994329534e+00 2.420706847417165158e-02 6.208242245882961363e+00 1.312867095580538113e+01
1.762782544514272853e+00 2.436850644748019684e-02 6.277926237584670055e+00 1.354919635319277660e+01
1.780235837034215951e+00 2.452898146633055929e-02 6.348631601491875109e+00 1.398604938363745731e+01
1.797689129554159271e+00 2.468855328137465124e-02 6.420410907767911013e+00 1.444028949721914756e+01
1.815142422074102813e+00 2.484728007075692052e-02 6.493319836698010050e+00 1.491307788485711150e+01
1.832595714594046132e+00 2.500521860275694425e-02 6.567417447096643102e+00 1.540567501666033756e+01
1.850049007113989230e+00 2.516242431042137531e-02 6.642766469026269327e+00 1.591945877106653739e+01
1.867502299633932550e+00 2.531895142669889423e-02 6.719433652288807401e+00 1.645593630969094079e+01
1.884955592153875870e+00 2.547485306887480733e-02 6.797490141261403274e+00 1.701676155707216864e+01
1.902408884673818967e+00 2.563018133949322014e-02 6.877011888088029323e+00 1.760374966227830029e+01
1.919862177193762509e+00 2.578498742923453560e-02 6.958080120673288960e+00 1.821889754182790355e+01
1.937315469713705829e+00 2.593932168258058016e-02 7.040781872195231550e+00 1.886441215382349412e+01
1.954768762233649149e+00 2.609323371826795593e-02 7.125210574111527251e+00 1.954273026686496451e+01
1.972222054753592246e+00 2.624677247090219726e-02 7.211466723194266848e+00 2.025655862474185298e+01
1.989675347273535566e+00 2.639998631348817321e-02 7.299658638068395433e+00 2.100890044766915210e+01
2.007128639793478886e+00 2.655292309983063939e-02 7.389903319171631679e+00 2.180310847283730524e+01
2.024581932313422428e+00 2.670563026427935291e-02 7.482327429108387662e+00 2.264292757275861590e+01
2.042035224833365525e+00 2.685815488877697430e-02 7.577068413998419238e+00 2.353255831593798320e+01
2.059488517353308623e+00 2.701054376634775059e-02 7.674275790445711287e+00 2.447672781682246779e+01
2.076941809873252165e+00 2.716284349854037813e-02 7.774112628208500020e+00 2.548076776098472607e+01
2.094395102393195263e+00 2.731510053082427877e-02 7.876757271923093384e+00 2.655072582445096785e+01
2.111848394913138804e+00 2.746736126332597130e-02 7.982405340408058159e+00 2.769347330142398889e+01
2.129301687433081902e+00 2.761967208677318722e-02 8.091272052878679233e+00 2.891686119757592976e+01
2.146754979953025444e+00 2.777207947598765367e-02 8.203594980977262807e+00 3.022989285321159869e+01
2.164208272472968542e+00 2.792463005434200896e-02 8.319637274398589355e+00 3.164294098945235589e+01
2.181661564992911639e+00 2.807737065421326769e-02 8.439691511359447063e+00 3.316802230171004595e+01
2.199114857512855181e+00 2.823034841592990743e-02 8.564084277769991260e+00 3.481911760018194713e+01
2.216568150032798723e+00 2.838361082404476654e-02 8.693181579202208908e+00 3.661257501233482259e+01
2.234021442552741821e+00 2.853720582308586981e-02 8.827389178103679512e+00 3.856579685400770074e+01
2.251474735072684918e+00 2.869118185758813902e-02 8.967048462794828367e+00 4.066644455914777723e+01
2.268928027592628460e+00 2.884558797634610705e-02 9.111775215477669221e+00 4.270289444225876707e+01
2.286381320112572002e+00 2.900047390196308639e-02 9.261223896364107588e+00 4.468055083740512146e+01
2.303834612632515100e+00 2.915589010931795080e-02 9.415058790036278324e+00 4.659631683635747379e+01
2.321287905152458197e+00 2.931188793219121486e-02 9.572920483937087610e+00 4.843649146308312226e+01
2.338741197672401295e+00 2.946851961992050586e-02 9.734436035840323242e+00 5.018980614934228868e+01
2.356194490192344837e+00 2.962583847291216585e-02 9.899228649651954370e+00 5.184756095258447317e+01
2.373647782712288379e+00 2.978389889409899932e-02 1.006692456030013005e+01 5.340306159157010768e+01
2.391101075232231477e+00 2.994275653735918932e-02 1.023717459514401185e+01 5.485664069281007471e+01
2.408554367752174574e+00 3.010246837267312181e-02 1.040966957828554840e+01 5.621423656192543916e+01
2.426007660272118116e+00 3.026309283555346161e-02 1.058394888024242952e+01 5.741850244100352540e+01
2.443460952792061214e+00 3.042468991717469512e-02 1.075975737683184441e+01 5.853004117121091099e+01
2.460914245312004311e+00 3.058732131312768415e-02 1.093664123895057472e+01 5.947545766352951091e+01
2.478367537831947853e+00 3.075105054108921362e-02 1.111426521940879120e+01 6.028734309440407202e+01
2.495820830351891395e+00 3.091594309477629920e-02 1.129227739205131620e+01 6.095371766925800472e+01
2.513274122871834493e+00 3.108206658688332166e-02 1.147032207830010364e+01 6.146722145377911062e+01
2.530727415391777591e+00 3.124949091860935654e-02 1.164802720346885323e+01 6.181640717397418427e+01
2.548180707911721132e+00 3.141828844342217653e-02 1.182503492049949756e+01 6.200098127642312562e+01
2.565634000431664674e+00 3.158853416520362306e-02 1.200098960390395852e+01 6.201713335874462274e+01
2.583087292951607772e+00 3.176030591774798434e-02 1.217553008360207301e+01 6.185891538895280206e+01
2.600540585471550870e+00 3.193368460638841555e-02 1.234828959750340083e+01 6.152095523117368714e+01
2.617993877991494411e+00 3.210875440102167050e-02 1.251889729054702372e+01 6.099910583274954945e+01
2.635447170511437509e+00 3.228560302890244593e-02 1.268698276444572315e+01 6.029160462992500413e+01
2.652900463031380607e+00 3.246432199441104394e-02 1.285217179106550311e+01 5.939598357887192748e+01
2.670353755551324149e+00 3.264500692140166055e-02 1.301409042259323101e+01 5.831210568864450039e+01
2.687807048071267690e+00 3.282775782636336570e-02 1.317239493330823663e+01 5.705168834318884308e+01
2.705260340591210788e+00 3.301267945724752073e-02 1.332674810588513559e+01 5.561885433416934887e+01
2.722713633111153886e+00 3.319988176261354229e-02 1.347680123730280499e+01 5.401205458439495288e+01
2.740166925631096984e+00 3.338948018492301356e-02 1.362213094708644689e+01 5.220772180117428718e+01
2.757620218151040525e+00 3.358159588052661571e-02 1.376239459198354886e+01 5.023961269584798117e+01
2.775073510670984067e+00 3.377635723509708060e-02 1.389728084207991010e+01 4.812433409744932788e+01
2.792526803190927165e+00 3.397389925857272758e-02 1.402672098403716561e+01 4.595530417841588644e+01
2.809980095710870263e+00 3.417435338972841380e-02 1.415080665895260204e+01 4.379835887518371607e+01
2.827433388230813804e+00 3.437779446977453496e-02 1.426964261871525785e+01 4.167660424533574570e+01
2.844886680750756902e+00 3.458421583822410966e-02 1.438333369505478743e+01 3.960967562185473412e+01
2.862339973270700000e+00 3.479355817852650828e-02 1.449198397130923333e+01 3.760725278229157453e+01
2.879793265790643542e+00 3.500580306495613275e-02 1.459570796803015291e+01 3.566458516109970134e+01
2.897246558310587083e+00 3.522093433523888761e-02 1.469485057104911796e+01 3.386038986042571963e+01
2.914699850830530625e+00 3.543890879963586260e-02 1.478982308066433049e+01 3.221998087302495151e+01
2.932153143350473723e+00 3.565970521941977389e-02 1.488098835644161611e+01 3.072127276070198221e+01
2.949606435870416821e+00 3.588329673915519047e-02 1.496866547013762982e+01 2.934837121407512583e+01
2.967059728390360362e+00 3.610964379828379700e-02 1.505313629156118971e+01 2.808852017879529583e+01
2.984513020910303460e+00 3.633872946599354253e-02 1.513465100227853988e+01 2.692653605510355774e+01
3.001966313430246558e+00 3.657053189782993180e-02 1.521343269520156838e+01 2.585261883155034113e+01
3.019419605950190100e+00 3.680500605811883735e-02 1.528968116392423759e+01 2.486019727228380560e+01
3.036872898470133197e+00 3.704211800154681711e-02 1.536357605287418870e+01 2.393995278955904382e+01
3.054326190990076295e+00 3.728184601888798189e-02 1.543527949541852529e+01 2.308371563596647391e+01
3.071779483510019837e+00 3.752416434385139749e-02 1.550493833512910591e+01 2.228589221166515699e+01
3.089232776029963379e+00 3.776904395160518568e-02 1.557268600670115610e+01 2.154146739195586946e+01
3.106686068549906921e+00 3.801645554289626028e-02 1.563864413709958967e+01 2.084574380421754114e+01
3.124139361069850018e+00 3.826637045074524068e-02 1.570292391269813592e+01 2.019448207465981326e+01
3.141592653589793116e+00 3.851876123469224339e-02 1.576562724821284434e+01 1.958386513732791556e+01
3.159045946109736214e+00 3.877360022282869828e-02 1.582684781459164647e+01 1.901060340660309933e+01
3.176499238629679756e+00 3.903085803709321205e-02 1.588667193018339852e+01 1.847186062426757758e+01
3.193952531149622853e+00 3.929050439320578431e-02 1.594517930369470982e+01 1.796502317986689334e+01
3.211405823669565951e+00 3.955250974815468362e-02 1.600244370817319250e+01 1.748762748241790277e+01
3.228859116189509493e+00 3.981684544271697768e-02 1.605853360347863301e+01 1.703745440186441229e+01
3.246312408709452590e+00 4.008348331668480646e-02 1.611351259624468213e+01 1.661250667959274452e+01
3.263765701229396576e+00 4.035239550398092567e-02 1.616743995346063656e+01 1.621100401592615015e+01
3.281218993749339674e+00 4.062355435588442532e-02 1.622037096838043269e+01 1.583132344205136910e+01
3.298672286269282772e+00 4.089693185919978519e-02 1.627235733733679268e+01 1.547202608242183253e+01
3.316125578789226314e+00 4.117249936389012072e-02 1.632344747841935728e+01 1.513181381025657579e+01
3.333578871309169411e+00 4.145022758152361320e-02 1.637368681199586717e+01 1.480949830439548798e+01
3.351032163829112509e+00 4.173008671997514851e-02 1.642311801994526377e+01 1.450398522830453985e+01
3.368485456349056051e+00 4.201204703920551065e-02 1.647178128458322632e+01 1.421424571191879949e+01
3.385938748868999149e+00 4.229607899458218828e-02 1.651971446583820224e+01 1.393932007969541864e+01
3.403392041388942246e+00 4.258215323687948584e-02 1.656695334352782467e+01 1.367834231421767122e+01
3.420845333908885788e+00 4.287024061227857202e-02 1.661353170561894999e+01 1.343049299409175035e+01
3.438298626428828886e+00 4.316031216236743129e-02 1.665948159255429317e+01 1.319504266007475302e+01
