# angles(rad), pulling distance(m),                                     elastic band force(n), cable force(n)
0.000000000000000000e+00 2.350460107896025681e-04 7.634491703005108487e-02 1.239873490459429267e-01
1.745329251994329547e-02 4.726191819569109331e-04 1.529157834602233867e-01 2.464271107058644550e-01
3.490658503988659095e-02 7.126322300420713735e-04 2.296908929309500746e-01 3.673663492441804346e-01
5.235987755982988295e-02 9.549979520148780274e-04 3.066483452991307090e-01 4.868443283779843589e-01
6.981317007977318190e-02 1.199649498220981079e-03 3.837660466381310753e-01 6.048430068730550335e-01
8.726646259971647390e-02 1.446519974982884635e-03 4.610217092377832393e-01 7.213608141231853121e-01
1.047197551196597659e-01 1.695534554614245215e-03 5.383928516043856582e-01 8.364182939069535472e-01
1.221730476396030718e-01 1.946623759069993249e-03 6.158568423111955292e-01 9.499956163572854662e-01
1.396263401595463638e-01 2.199712574248947807e-03 6.933910754003994592e-01 1.062108280527025661e+00
1.570796326794896558e-01 2.454717127650812153e-03 7.709730142336053138e-01 1.172794376304002295e+00
1.745329251994329478e-01 2.711558238242539609e-03 8.485801914918430500e-01 1.282036064771982398e+00
1.919862177193762398e-01 2.970165251178907839e-03 9.261902091755641608e-01 1.389785174354336128e+00
2.094395102393195318e-01 3.230470456103450624e-03 1.003780738604642009e+00 1.496010787829266775e+00
2.268928027592628516e-01 3.492403999850338201e-03 1.081329520418371271e+00 1.600707298655504207e+00
2.443460952792061436e-01 3.755893700471413677e-03 1.158814365312648142e+00 1.703872127560650540e+00
2.617993877991494078e-01 4.020865047236196060e-03 1.236213201781345639e+00 1.805505852111189968e+00
2.792526803190927276e-01 4.287241200631876359e-03 1.313504152207912057e+00 1.905613228121589176e+00
2.967059728390360474e-01 4.554943908973351982e-03 1.390665539661703587e+00 2.004194936787792702e+00
3.141592653589793116e-01 4.823896749870600770e-03 1.467675772941595902e+00 2.101224387078687972e+00
3.316125578789225758e-01 5.094024346947695348e-03 1.544512441372117406e+00 2.196650613055554757e+00
3.490658503988658956e-01 5.365251944870056029e-03 1.621151886271705145e+00 2.290404472360295429e+00
3.665191429188092154e-01 5.637505409344446480e-03 1.697569764312221396e+00 2.382424764822082874e+00
3.839724354387524796e-01 5.910711227118973718e-03 1.773743130734318774e+00 2.472714280696787892e+00
4.014257279586957439e-01 6.184796505983089845e-03 1.849650749923889670e+00 2.561293794048202788e+00
4.188790204786390636e-01 6.459688974767592920e-03 1.925271302982447974e+00 2.648127854558236294e+00
4.363323129985823834e-01 6.735316881956269174e-03 2.000582408718004856e+00 2.733142569858143300e+00
4.537856055185257032e-01 7.011607494218815607e-03 2.075562102129882014e+00 2.816328227741728973e+00
4.712388980384689674e-01 7.288485948507075762e-03 2.150189666966621171e+00 2.897723103722932958e+00
4.886921905584122872e-01 7.565875227765282880e-03 2.224442561730415768e+00 2.977247352276468639e+00
5.061454830783556069e-01 7.843697707743752662e-03 2.298295500113288536e+00 3.054754171956393538e+00
5.235987755982988157e-01 8.121878915888742362e-03 2.371725074878678896e+00 3.130239545476136254e+00
5.410520681182421354e-01 8.400347934168102965e-03 2.444710432820202062e+00 3.203732808505110441e+00
5.585053606381854552e-01 8.679033978897264523e-03 2.517231465233003007e+00 3.275230822162184197e+00
5.759586531581287749e-01 8.957863093918433731e-03 2.589265359715041903e+00 3.344608895910157642e+00
5.934119456780720947e-01 9.236759143832158625e-03 2.660786894312993311e+00 3.411729244251628490e+00
6.108652381980153034e-01 9.515646059178711411e-03 2.731774393941523993e+00 3.476710865660020300e+00
6.283185307179586232e-01 9.794448162888231418e-03 2.802208217425156356e+00 3.539611723234063589e+00
6.457718232379019430e-01 1.007309037970778066e-02 2.872066352063916028e+00 3.600265605908963273e+00
6.632251157578451517e-01 1.035150185813060557e-02 2.941321478710192672e+00 3.658282924781658174e+00
6.806784082777884715e-01 1.062961903690514201e-02 3.009954109497210872e+00 3.713921412428498492e+00
6.981317007977317912e-01 1.090736343949730465e-02 3.077967081831492813e+00 3.768603219878973398e+00
7.155849933176750000e-01 1.118464159422877767e-02 3.145385854587599894e+00 3.823922846826499633e+00
7.330382858376184307e-01 1.146139393725404028e-02 3.212241019360669636e+00 3.879911192306858325e+00
7.504915783575616395e-01 1.173755689398879240e-02 3.278562236379382266e+00 3.936774145221747734e+00
7.679448708775049592e-01 1.201303372744480166e-02 3.344377693466313417e+00 3.995104484928889033e+00
7.853981633974482790e-01 1.228775378475329381e-02 3.409714835459559001e+00 4.054691611226787451e+00
8.028514559173914877e-01 1.256165844959049489e-02 3.474600193831022032e+00 4.115495420793233272e+00
8.203047484373349185e-01 1.283467402165670672e-02 3.539059464505352359e+00 4.177878760332701447e+00
8.377580409572781273e-01 1.310670708210020553e-02 3.603117595149635477e+00 4.242296455815328216e+00
8.552113334772214470e-01 1.337768680802784750e-02 3.666798825451131449e+00 4.308555920068341649e+00
8.726646259971647668e-01 1.364754956706821717e-02 3.730126742341873136e+00 4.376690529122270412e+00
8.901179185171079755e-01 1.391622573790396271e-02 3.793124328005434975e+00 4.446945816645389016e+00
9.075712110370514063e-01 1.418363975621905748e-02 3.855814007391006992e+00 4.519578768098121202e+00
9.250245035569946150e-01 1.444970168525050273e-02 3.918217692849491396e+00 4.595005857330882293e+00
9.424777960769379348e-01 1.471433947314089441e-02 3.980356823180823067e+00 4.673102684475243684e+00
9.599310885968812546e-01 1.497748452276735122e-02 4.042252406890770366e+00 4.753985921122380276e+00
9.773843811168245743e-01 1.523906548298460152e-02 4.103925058781129565e+00 4.837889220303379645e+00
9.948376736367677831e-01 1.549901082227735961e-02 4.165395035139079383e+00 4.925011062482555602e+00
1.012290966156711214e+00 1.575724982010912739e-02 4.226682272243141192e+00 5.015541431725478283e+00
1.029744258676654312e+00 1.601370946227758177e-02 4.287806416631938511e+00 5.109741562168817808e+00
1.047197551196597631e+00 1.626829973921977215e-02 4.348786859869498755e+00 5.208190851702058310e+00
1.064650843716540951e+00 1.652094676117635622e-02 4.409642770605472606e+00 5.310825054403573553e+00
1.082104136236484271e+00 1.677157905483230016e-02 4.470393122788824947e+00 5.417856427158373123e+00
1.099557428756427591e+00 1.702012415666587231e-02 4.531056729633417213e+00 5.529584811956566703e+00
1.117010721276370910e+00 1.726650995755935059e-02 4.591652269725396529e+00 5.646300399406197101e+00
1.134464013796314230e+00 1.751066440939822583e-02 4.652198317755288137e+00 5.768320435485629893e+00
1.151917306316257550e+00 1.775251526860998144e-02 4.712713373647650528e+00 5.895991317551409594e+00
1.169370598836200648e+00 1.799199155353102195e-02 4.773215888284399355e+00 6.029648494014965721e+00
1.186823891356144189e+00 1.822902077070336774e-02 4.833724295455728459e+00 6.169723743607414157e+00
1.204277183876087287e+00 1.846351822275463586e-02 4.894257036385483595e+00 6.316972543530650519e+00
1.221730476396030607e+00 1.869540335800216890e-02 4.954832589998149572e+00 6.471775926404760959e+00
1.239183768915973927e+00 1.892460385662321845e-02 5.015469501162948873e+00 6.634422272671422149e+00
1.256637061435917246e+00 1.915104952064351426e-02 5.076186407004800394e+00 6.805392663252201935e+00
1.274090353955860566e+00 1.937466941907899434e-02 5.137002069384089431e+00 6.985294816764966441e+00
1.291543646475803886e+00 1.959539685399037251e-02 5.197935400541039641e+00 7.174629633619606039e+00
1.308996938995747206e+00 1.981316084446182665e-02 5.259005495371691374e+00 7.374221137800219594e+00
1.326450231515690303e+00 2.002787175993102006e-02 5.320231661849848415e+00 7.585487414996326727e+00
1.343903524035633845e+00 2.023944993113354837e-02 5.381633450176217082e+00 7.808979444328110198e+00
1.361356816555576943e+00 2.044781903242742088e-02 5.443230688815319240e+00 8.045530206366095172e+00
1.378810109075520263e+00 2.065294369485036127e-02 5.505043514513490166e+00 8.294524198212824828e+00
1.396263401595463582e+00 2.085487937872944342e-02 5.567092408434817230e+00 8.553018457798701846e+00
1.413716694115406902e+00 2.105377458288841194e-02 5.629398233274606866e+00 8.817314166999690173e+00
1.431169986635350000e+00 2.124977969095757577e-02 5.691982267576581656e+00 9.087192088752511054e+00
1.448623279155293542e+00 2.144303425333964758e-02 5.754866248466091960e+00 9.363010495834039659e+00
1.466076571675236861e+00 2.163367206756288200e-02 5.818072411335307947e+00 9.644939381888244512e+00
1.483529864195180181e+00 2.182181961857919753e-02 5.881623531428982865e+00 9.933261458163014979e+00
1.500983156715123279e+00 2.200759691124889658e-02 5.945542972806765469e+00 1.022826256234376885e+01
1.518436449235066599e+00 2.219111815099155879e-02 6.009854734134196796e+00 1.053023464248968288e+01
1.535889741755009918e+00 2.237249206691989400e-02 6.074583498819059457e+00 1.083949375633971002e+01
1.553343034274953460e+00 2.255182232169199164e-02 6.139754691970721545e+00 1.115637568916509359e+01
1.570796326794896558e+00 2.272920787663631689e-02 6.205394535856333604e+00 1.148123726055610305e+01
1.588249619314839878e+00 2.290474336770731770e-02 6.271530109937992314e+00 1.181445534633747485e+01
1.605702911834782975e+00 2.307851936285561581e-02 6.338189418869951020e+00 1.215643524818177568e+01
1.623156204354726295e+00 2.325062269708318488e-02 6.405401461458150258e+00 1.250760532195058339e+01
1.640609496874669837e+00 2.342113670401205910e-02 6.473196303993377754e+00 1.286842447822797730e+01
1.658062789394613157e+00 2.359014148021395738e-02 6.541605161558586623e+00 1.323938132997777650e+01
1.675516081914556255e+00 2.375771410489829066e-02 6.610660485643526485e+00 1.362099874939474375e+01
1.692969374434499574e+00 2.392392884936819439e-02 6.680396056344046762e+00 1.401383592593999694e+01
1.710422666954442894e+00 2.408885738104412852e-02 6.750847082299907598e+00 1.441849079071604045e+01
1.727875959474386436e+00 2.425256893545772036e-02 6.822050309623099551e+00 1.483560524320635210e+01
1.745329251994329534e+00 2.441513049819178313e-02 6.894044140735316795e+00 1.526586731822403387e+01
1.762782544514272853e+00 2.457660695584540367e-02 6.966868762083286093e+00 1.571001701895198366e+01
1.780235837034215951e+00 2.473706124988347271e-02 7.040566283000526226e+00 1.616884995260841151e+01
1.797689129554159271e+00 2.489655452010955394e-02 7.115180887219082706e+00 1.664322278584971571e+01
1.815142422074102813e+00 2.505514622561190452e-02 7.190758998380644584e+00 1.713406073773382943e+01
1.832595714594046132e+00 2.521289429101976343e-02 7.267349461093272289e+00 1.764236082643483527e+01
1.850049007113989230e+00 2.536985519299883585e-02 7.345003739316230629e+00 1.816920509279355400e+01
1.867502299633932550e+00 2.552608411303458266e-02 7.423776134134429938e+00 1.871576096622044716e+01
1.884955592153875870e+00 2.568163499607719821e-02 7.503724023308137703e+00 1.928330090036123323e+01
1.902408884673818967e+00 2.583656070180341546e-02 7.584908125354441033e+00 1.987320155729329585e+01
1.919862177193762509e+00 2.599091305508378913e-02 7.667392791335503333e+00 2.048696763923383912e+01
1.937315469713705829e+00 2.614474297485694376e-02 7.751246327994955720e+00 2.112623536043712846e+01
1.954768762233649149e+00 2.629810054172281725e-02 7.836541356397565217e+00 2.179279546593103234e+01
1.972222054753592246e+00 2.645103508633150219e-02 7.923355210787732972e+00 2.248860802871371689e+01
1.989675347273535566e+00 2.660359528787302474e-02 8.011770382988036232e+00 2.321582073449171801e+01
2.007128639793478886e+00 2.675582922200902061e-02 8.101875018895245972e+00 2.397679935444325494e+01
2.024581932313422428e+00 2.690778448061209929e-02 8.193763477395588524e+00 2.477414411899259861e+01
2.042035224833365525e+00 2.705950820528683215e-02 8.287536956376365893e+00 2.561073339872347177e+01
2.059488517353308623e+00 2.721104719511911740e-02 8.383304196701724109e+00 2.648974724639097644e+01
2.076941809873252165e+00 2.736244796250427574e-02 8.481182283923445198e+00 2.741471901583481952e+01
2.094395102393195263e+00 2.751375680154448389e-02 8.581297549917293210e+00 2.838958028598849737e+01
2.111848394913138804e+00 2.766501988177017327e-02 8.683786606426332710e+00 2.941871522418291462e+01
2.129301687433081902e+00 2.781628328191005153e-02 8.788797519402836045e+00 3.050703774424781045e+01
2.146754979953025444e+00 2.796759310184487521e-02 8.896491157495892921e+00 3.166005681013153605e+01
2.164208272472968542e+00 2.811899549762907763e-02 9.007042744044811755e+00 3.288398642275519279e+01
2.181661564992911639e+00 2.827053677199863752e-02 9.120643648756614041e+00 3.418584720113816644e+01
2.199114857512855181e+00 2.842226344519457881e-02 9.237503466781134875e+00 3.557360585949425769e+01
2.216568150032798723e+00 2.857422230676003386e-02 9.357852441912079655e+00 3.705634338164689723e+01
2.234021442552741821e+00 2.872646052390119900e-02 9.481944307625992607e+00 3.864444098940289507e+01
2.251474735072684918e+00 2.887902567340170853e-02 9.610059568306747124e+00 4.034982074156800280e+01
2.268928027592628460e+00 2.903196585715260569e-02 9.742509676231323468e+00 4.218631187781149805e+01
2.286381320112572002e+00 2.918532975223146406e-02 9.879513202977603825e+00 4.412799214079744559e+01
2.303834612632515100e+00 2.933916670093513271e-02 1.002095147023034905e+01 4.606650171225897594e+01
2.321287905152458197e+00 2.949352680285733871e-02 1.016651900262109365e+01 4.793709856971347705e+01
2.338741197672401295e+00 2.964846097305322975e-02 1.031588366852267313e+01 4.972526446813882472e+01
2.356194490192344837e+00 2.980402107173188778e-02 1.046873163195807876e+01 5.143106501243568829e+01
2.373647782712288379e+00 2.996025994939280693e-02 1.062473648763779721e+01 5.304411127383479396e+01
2.391101075232231477e+00 3.011723159078328466e-02 1.078358471595826096e+01 5.456250925007871899e+01
2.408554367752174574e+00 3.027499117556556318e-02 1.094494211734171962e+01 5.597274551603110382e+01
2.426007660272118116e+00 3.043359521451127758e-02 1.110849332194173655e+01 5.727494319096948061e+01
2.443460952792061214e+00 3.059310164441973040e-02 1.127391602907533219e+01 5.846039280663549675e+01
2.460914245312004311e+00 3.075356995025970222e-02 1.144088649132812030e+01 5.952234916544200161e+01
2.478367537831947853e+00 3.091506129842286343e-02 1.160908716680564368e+01 6.045699430167957189e+01
2.495820830351891395e+00 3.107763865047610471e-02 1.177818747382555031e+01 6.125376913845006044e+01
2.513274122871834493e+00 3.124136693122415986e-02 1.194786991063337744e+01 6.191183562902219251e+01
2.530727415391777591e+00 3.140631314505604177e-02 1.211783179786445785e+01 6.243155006919316463e+01
2.548180707911721132e+00 3.157254657357248806e-02 1.228773474219456396e+01 6.279490023390933828e+01
2.565634000431664674e+00 3.174013890674925314e-02 1.245723156249449204e+01 6.299396576082322241e+01
2.583087292951607772e+00 3.190916446576958637e-02 1.262603521872559043e+01 6.304729654427845986e+01
2.600540585471550870e+00 3.207970036210297526e-02 1.279379023434671048e+01 6.292582754602029382e+01
2.617993877991494411e+00 3.225182674086476270e-02 1.296024305175645353e+01 6.266526333146796901e+01
2.635447170511437509e+00 3.242562698472086641e-02 1.312502884795660663e+01 6.222138360896556719e+01
2.652900463031380607e+00 3.260118797092950021e-02 1.328782953278348700e+01 6.161015025369007247e+01
2.670353755551324149e+00 3.277860034051351124e-02 1.344832723586154799e+01 6.083075370276924332e+01
2.687807048071267690e+00 3.295795876251614992e-02 1.360617872278105089e+01 5.987328386095788346e+01
2.705260340591210788e+00 3.313936228854567900e-02 1.376103256804569419e+01 5.873504376169077545e+01
2.722713633111153886e+00 3.332291463990237623e-02 1.391259022475018980e+01 5.743755276268478838e+01
2.740166925631096984e+00 3.350872460830491006e-02 1.406055012704297624e+01 5.598186256813689710e+01
2.757620218151040525e+00 3.369690647108889575e-02 1.420459669320576701e+01 5.436558409809188674e+01
2.775073510670984067e+00 3.388758042374997309e-02 1.434444779876194254e+01 5.260516329714722872e+01
2.792526803190927165e+00 3.408087289874696391e-02 1.447967776022268893e+01 5.065086640101877435e+01
2.809980095710870263e+00 3.427691749750592931e-02 1.461003266644819121e+01 4.857286174274801027e+01
2.827433388230813804e+00 3.447584422285391442e-02 1.473525597125970599e+01 4.637882232105658176e+01
2.844886680750756902e+00 3.467771982378421713e-02 1.485534636773283346e+01 4.418524147607644181e+01
2.862339973270700000e+00 3.488254031527716903e-02 1.497040178175607039e+01 4.204720344481390271e+01
2.879793265790643542e+00 3.509026441881275132e-02 1.508050580373960514e+01 3.996706001557893728e+01
2.897246558310587083e+00 3.530087402645080280e-02 1.518576651746017170e+01 3.794852096132417074e+01
2.914699850830530625e+00 3.551435073763897776e-02 1.528646988698281461e+01 3.605543239722855731e+01
2.932153143350473723e+00 3.573066572422634729e-02 1.538301585213135958e+01 3.432883074283783742e+01
2.949606435870416821e+00 3.594980059404993822e-02 1.547576002301866183e+01 3.274893067774068101e+01
2.967059728390360362e+00 3.617173075060756138e-02 1.556501644652544769e+01 3.129988554485743180e+01
2.984513020910303460e+00 3.639642472482252505e-02 1.565106320771327830e+01 2.996794424227283571e+01
3.001966313430246558e+00 3.662386784032294063e-02 1.573414757167377331e+01 2.873821088356262621e+01
3.019419605950190100e+00 3.685404384604833855e-02 1.581449038514791994e+01 2.760019766609455516e+01
3.036872898470133197e+00 3.708692027222602883e-02 1.589228973664874367e+01 2.654647908481431173e+01
3.054326190990076295e+00 3.732246800274189452e-02 1.596772399633484341e+01 2.556835160112813554e+01
3.071779483510019837e+00 3.756066514754627383e-02 1.604095436624522364e+01 2.465783170743741337e+01
3.089232776029963379e+00 3.780149048208541335e-02 1.611212703151509729e+01 2.380860440190305383e+01
3.106686068549906921e+00 3.804492200169730387e-02 1.618137498752950520e+01 2.301524357189997616e+01
3.124139361069850018e+00 3.829093625759482505e-02 1.624881959917735941e+01 2.227300453797722213e+01
3.141592653589793116e+00 3.853951041447705589e-02 1.631457193262386696e+01 2.157748792564926532e+01
3.159045946109736214e+00 3.879062492817089702e-02 1.637873389055089035e+01 2.092454990603753373e+01
3.176499238629679756e+00 3.904425981286974850e-02 1.644139922382503016e+01 2.031080549265839963e+01
3.193952531149622853e+00 3.930038831582072928e-02 1.650265440739091005e+01 1.973371009868475667e+01
3.211405823669565951e+00 3.955897895101388034e-02 1.656257935151283078e+01 1.919078858777915997e+01
3.228859116189509493e+00 3.982000463435336757e-02 1.662124809405973735e+01 1.867915280908232489e+01
3.246312408709452590e+00 4.008344451627050137e-02 1.667872938354065226e+01 1.819608452775466390e+01
3.263765701229396576e+00 4.034927982668539553e-02 1.673508714106159445e+01 1.773940380071735134e+01
3.281218993749339674e+00 4.061748951614090747e-02 1.679038098881649077e+01 1.730744277037710077e+01
3.298672286269282772e+00 4.088805010917509475e-02 1.684466655630409804e+01 1.689865979545906782e+01
3.316125578789226314e+00 4.116093716153187282e-02 1.689799593570119640e+01 1.651158654327430853e+01
3.333578871309169411e+00 4.143612676656719535e-02 1.695041789450712244e+01 1.614476150897942475e+01
3.351032163829112509e+00 4.171359562472745641e-02 1.700197826563212544e+01 1.579687744144823647e+01
3.368485456349056051e+00 4.199332100784217148e-02 1.705272009383544329e+01 1.546670852258402284e+01
3.385938748868999149e+00 4.227528029763907846e-02 1.710268396422473813e+01 1.515318550974291689e+01
3.403392041388942246e+00 4.255945066439439928e-02 1.715190812837677470e+01 1.485531990671681335e+01
3.420845333908885788e+00 4.284580906040848930e-02 1.720042873139986028e+01 1.457221415400887210e+01
3.438298626428828886e+00 4.313433222000583739e-02 1.724827998965991327e+01 1.430304419026158591e+01
