# angles(rad), pulling distance(m),                                     elastic band force(n), cable force(n)
0.000000000000000000e+00 2.105456857990315204e-04 6.681534416970819068e-02 1.060171382656061451e-01
1.745329251994329547e-02 4.236923287434781133e-04 1.339413645402522390e-01 2.109099782287163216e-01
3.490658503988659095e-02 6.395719690598120153e-04 2.013499039271398061e-01 3.143581050424719137e-01
5.235987755982988295e-02 8.583229772547490335e-04 2.690125513791362666e-01 4.160461150402568475e-01
6.981317007977318190e-02 1.080090664023696835e-03 3.369006421782649308e-01 5.156644261323759526e-01
8.726646259971647390e-02 1.305025702815581145e-03 4.049852578398069336e-01 6.129161951981449974e-01
1.047197551196597659e-01 1.533063220785461185e-03 4.732372261123014012e-01 7.082030279387246940e-01
1.221730476396030718e-01 1.764108209760840333e-03 5.416271209775451734e-01 8.016149154346354777e-01
1.396263401595463638e-01 1.998066211424534729e-03 6.101252626505929699e-01 8.931613020746539400e-01
1.570796326794896558e-01 2.234845797968996496e-03 6.787017710645292246e-01 9.828338327894754478e-01
1.745329251994329478e-01 2.474353336849508238e-03 7.473267798095540870e-01 1.070640762281135583e+00
1.919862177193762398e-01 2.716497554997151977e-03 8.159704896177556455e-01 1.156567807603510634e+00
2.094395102393195318e-01 2.961184727470206422e-03 8.846031683631093712e-01 1.240618469243072841e+00
2.268928027592628516e-01 3.208322257581068451e-03 9.531951510614786738e-01 1.322776538238636945e+00
2.443460952792061436e-01 3.457813276966577396e-03 1.021716839870614679e+00 1.403051771664982850e+00
2.617993877991494078e-01 3.709566974617232050e-03 1.090138710571339820e+00 1.481394922827927063e+00
2.792526803190927276e-01 3.963492421170253070e-03 1.158431364116023765e+00 1.557786997695634890e+00
2.967059728390360474e-01 4.219499983537651315e-03 1.226565551241877827e+00 1.632198791661228388e+00
3.141592653589793116e-01 4.477478466580746275e-03 1.294512158746383479e+00 1.704748948877601533e+00
3.316125578789225758e-01 4.737357891242739531e-03 1.362242036125811406e+00 1.775140263372247063e+00
3.490658503988658956e-01 4.999045048236418903e-03 1.429725876968340748e+00 1.843487365566575997e+00
3.665191429188092154e-01 5.262438664689174719e-03 1.496934058267740619e+00 1.909807400350385764e+00
3.839724354387524796e-01 5.527444946108096661e-03 1.563836288823712950e+00 1.973993510389483452e+00
4.014257279586957439e-01 5.793971131047417900e-03 1.630401734482231690e+00 2.035980406258019570e+00
4.188790204786390636e-01 6.061924234933647841e-03 1.696599525232061589e+00 2.095723817501645492e+00
4.363323129985823834e-01 6.331211050065574733e-03 1.762400583333571191e+00 2.153239903803914057e+00
4.537856055185257032e-01 6.601738145614265661e-03 1.827780360814331484e+00 2.208648879169976098e+00
4.712388980384689674e-01 6.873411867623065684e-03 1.892709277970873183e+00 2.261749185789996286e+00
4.886921905584122872e-01 7.146138339007597831e-03 1.957149434667489141e+00 2.312188758363025620e+00
5.061454830783556069e-01 7.419823661835660798e-03 2.021076020132798412e+00 2.360383954788723315e+00
5.235987755982988157e-01 7.694375163263397419e-03 2.084463210170297565e+00 2.406256475417923202e+00
5.410520681182421354e-01 7.969701869513151626e-03 2.147278716634353213e+00 2.449497216272931155e+00
5.585053606381854552e-01 8.245714353472280433e-03 2.209529348949690775e+00 2.491637282460403391e+00
5.759586531581287749e-01 8.522322751222858803e-03 2.271241972814970644e+00 2.533623395298267855e+00
5.934119456780720947e-01 8.799435379996920631e-03 2.332444891704618328e+00 2.575711474303843396e+00
6.108652381980153034e-01 9.076958749061163345e-03 2.393164733624856932e+00 2.618024291157151850e+00
6.283185307179586232e-01 9.354797666740560097e-03 2.453427213573664556e+00 2.660707317368132152e+00
6.457718232379019430e-01 9.632855437500828163e-03 2.513257301185825021e+00 2.703905812643007334e+00
6.632251157578451517e-01 9.911034606800355612e-03 2.572679119295861128e+00 2.747748349871616647e+00
6.806784082777884715e-01 1.018923904870051508e-02 2.631716060309551963e+00 2.792343370869592611e+00
6.981317007977317912e-01 1.046737977069141234e-02 2.690390839414638080e+00 2.837737801913243540e+00
7.155849933176750000e-01 1.074537049718592673e-02 2.748725532129860483e+00 2.884018134296387093e+00
7.330382858376184307e-01 1.102311962538028885e-02 2.806741628869775518e+00 2.931353824997537494e+00
7.504915783575616395e-01 1.130053264113236623e-02 2.864460077394566540e+00 2.979892473325310931e+00
7.679448708775049592e-01 1.157751319476861551e-02 2.921901323088162972e+00 3.029773202279902655e+00
7.853981633974482790e-01 1.185396383145350535e-02 2.979085352402928599e+00 3.081130616406891676e+00
8.028514559173914877e-01 1.212980439452420595e-02 3.036031727202971542e+00 3.133893701446067492e+00
8.203047484373349185e-01 1.240494943589983551e-02 3.092759622869351244e+00 3.188241087866900969e+00
8.377580409572781273e-01 1.267927969056742779e-02 3.149287863491179174e+00 3.244696840866930554e+00
8.552113334772214470e-01 1.295270558183502820e-02 3.205634952045325559e+00 3.303055823970678873e+00
8.726646259971647668e-01 1.322514436031278426e-02 3.261819106367995325e+00 3.363371196068098090e+00
8.901179185171079755e-01 1.349650963544140811e-02 3.317858286489654862e+00 3.425826278741900488e+00
9.075712110370514063e-01 1.376671106351992288e-02 3.373770225939699774e+00 3.490618793774345363e+00
9.250245035569946150e-01 1.403564023513432200e-02 3.429572461382508930e+00 3.558145232244382061e+00
9.424777960769379348e-01 1.430320132354011980e-02 3.485282357926877683e+00 3.628418480895470477e+00
9.599310885968812546e-01 1.456930476854561597e-02 3.540917140595780666e+00 3.701533355976867057e+00
9.773843811168245743e-01 1.483386064003206981e-02 3.596493917368025262e+00 3.777681033598472737e+00
9.948376736367677831e-01 1.509677825267922990e-02 3.652029708446744571e+00 3.857070602070316490e+00
1.012290966156711214e+00 1.535796646446498451e-02 3.707541471517308285e+00 3.939920610007811241e+00
1.029744258676654312e+00 1.561733386927811364e-02 3.763046126531367719e+00 4.026461559531804291e+00
1.047197551196597631e+00 1.587478852707170304e-02 3.818560584426180515e+00 4.116944758344074806e+00
1.064650843716540951e+00 1.613023895762236148e-02 3.874101768958044367e+00 4.211623381903988772e+00
1.082104136236484271e+00 1.638359273300262625e-02 3.929686646507876802e+00 4.310793291465688348e+00
1.099557428756427591e+00 1.663474418013499712e-02 3.985332249112027103e+00 4.414989782294765241e+00
1.117010721276370910e+00 1.688360039406745783e-02 4.041055701832315883e+00 4.524330993844925430e+00
1.134464013796314230e+00 1.713006959751994795e-02 4.096874250255163830e+00 4.639151068710813952e+00
1.151917306316257550e+00 1.737405953150104182e-02 4.152805284679248921e+00 4.759841759535777150e+00
1.169370598836200648e+00 1.761547818696380246e-02 4.208866371665190620e+00 4.886814221582151951e+00
1.186823891356144189e+00 1.785423360875923807e-02 4.265075278397636005e+00 5.020518837384006616e+00
1.204277183876087287e+00 1.809023411463693554e-02 4.321450004300334768e+00 5.161441467860644394e+00
1.221730476396030607e+00 1.832338835872969127e-02 4.378008810500634951e+00 5.310110326745840936e+00
1.239183768915973927e+00 1.855360558973244769e-02 4.434770248781335411e+00 5.467095939536295468e+00
1.256637061435917246e+00 1.878079557399372351e-02 4.491753197335978776e+00 5.633024320948804231e+00
1.274090353955860566e+00 1.900486946319770304e-02 4.548976890318698452e+00 5.808558459931034257e+00
1.291543646475803886e+00 1.922573367163547126e-02 4.606460955036620675e+00 5.994590557086931781e+00
1.308996938995747206e+00 1.944327381029918936e-02 4.664225448615257008e+00 6.192572612825734346e+00
1.326450231515690303e+00 1.965739109475619917e-02 4.722290893371279275e+00 6.403077679746333573e+00
1.343903524035633845e+00 1.986805237636288246e-02 4.780678320877973952e+00 6.625126049841624010e+00
1.361356816555576943e+00 2.007535817256809671e-02 4.839409311959302684e+00 6.855170244690775405e+00
1.378810109075520263e+00 2.027948673010223149e-02 4.898506040739365908e+00 7.090768837394631596e+00
1.396263401595463582e+00 2.048059114780414330e-02 4.957991325164289087e+00 7.332696305827923311e+00
1.413716694115406902e+00 2.067881916195924222e-02 5.017888674541335803e+00 7.581123998925960450e+00
1.431169986635350000e+00 2.087431113072980848e-02 5.078222343111898240e+00 7.836326620059781867e+00
1.448623279155293542e+00 2.106719924076620384e-02 5.139017389667470681e+00 8.098653706435730015e+00
1.466076571675236861e+00 2.125760923064235267e-02 5.200299736306516429e+00 8.368430965060328575e+00
1.483529864195180181e+00 2.144566054475761235e-02 5.262096232928977990e+00 8.646020731499724832e+00
1.500983156715123279e+00 2.163146679738323086e-02 5.324434729747580697e+00 8.931810764463508079e+00
1.518436449235066599e+00 2.181513624369180865e-02 5.387344151403162584e+00 9.226213494838884088e+00
1.535889741755009918e+00 2.199677217832092524e-02 5.450854576488584513e+00 9.529669664168755716e+00
1.553343034274953460e+00 2.217647327689227510e-02 5.514997325448047327e+00 9.842652375824805233e+00
1.570796326794896558e+00 2.235433392454637402e-02 5.579805055927796076e+00 1.016566921811081059e+01
1.588249619314839878e+00 2.253044455018373901e-02 5.645311863883987868e+00 1.049926314161598739e+01
1.605702911834782975e+00 2.270489186624134390e-02 5.711553393521697330e+00 1.084401990081044431e+01
1.623156204354726295e+00 2.287775916954637445e-02 5.778566957138917992e+00 1.120056705331072777e+01
1.640609496874669837e+00 2.304912655212316280e-02 5.846391666213887284e+00 1.156958249396153704e+01
1.658062789394613157e+00 2.321907114087966642e-02 5.915068573907780625e+00 1.195179621268670545e+01
1.675516081914556255e+00 2.338766730254312684e-02 5.984640830191323424e+00 1.234799658233445641e+01
1.692969374434499574e+00 2.355498682832351393e-02 6.055153851740116444e+00 1.275903670051698846e+01
1.710422666954442894e+00 2.372109913182276347e-02 6.126655508296527053e+00 1.318583900065068804e+01
1.727875959474386436e+00 2.388607139390188511e-02 6.199196327432116682e+00 1.362940575302853752e+01
1.745329251994329534e+00 2.404996874802769330e-02 6.272829719947893956e+00 1.409082335151691545e+01
1.762782544514272853e+00 2.421285439902653644e-02 6.347612228500397080e+00 1.457127631730995354e+01
1.780235837034215951e+00 2.437478979183120911e-02 6.423603802441010480e+00 1.507205296087432167e+01
1.797689129554159271e+00 2.453583471448958844e-02 6.500868102304591112e+00 1.559456250277241374e+01
1.815142422074102813e+00 2.469604744751174169e-02 6.579472837881407798e+00 1.614034393212045870e+01
1.832595714594046132e+00 2.485548485976955824e-02 6.659490144352650631e+00 1.671108607060208584e+01
1.850049007113989230e+00 2.501420253560737023e-02 6.740997001769965635e+00 1.730864185647692466e+01
1.867502299633932550e+00 2.517225487152630753e-02 6.824075705584942142e+00 1.793505173647158202e+01
1.884955592153875870e+00 2.532969517823574490e-02 6.908814393993965908e+00 1.859256636513351779e+01
1.902408884673818967e+00 2.548657578457573167e-02 6.995307638947906526e+00 1.928367282799908011e+01
1.919862177193762509e+00 2.564294811340908989e-02 7.083657115335221910e+00 2.001112990118896207e+01
1.937315469713705829e+00 2.579886279559725701e-02 7.173972358620270384e+00 2.077800017919591724e+01
1.954768762233649149e+00 2.595436972318647395e-02 7.266371621196856978e+00 2.158769997628668946e+01
1.972222054753592246e+00 2.610951816967840497e-02 7.360982852539986077e+00 2.244404205525470175e+01
1.989675347273535566e+00 2.626435683157390608e-02 7.457944816113356801e+00 2.335130531159685319e+01
2.007128639793478886e+00 2.641893394291138300e-02 7.557408371038283335e+00 2.431429517924430428e+01
2.024581932313422428e+00 2.657329732215377160e-02 7.659537949974126292e+00 2.533843809047543871e+01
2.042035224833365525e+00 2.672749446652916347e-02 7.764513266968211980e+00 2.642987471676073952e+01
2.059488517353308623e+00 2.688157261846945562e-02 7.872531301327743591e+00 2.759558528884888773e+01
2.076941809873252165e+00 2.703557883242729831e-02 7.983808612750570077e+00 2.884353606616468113e+01
2.094395102393195263e+00 2.718956006519802557e-02 8.098584057357346211e+00 3.018285310303274116e+01
2.111848394913138804e+00 2.734356321897405892e-02 8.217121989375074875e+00 3.162404872482207097e+01
2.129301687433081902e+00 2.749763524789894734e-02 8.339716056679941758e+00 3.317927720853595730e+01
2.146754979953025444e+00 2.765182319320467694e-02 8.466693721236770998e+00 3.486267986478851810e+01
2.164208272472968542e+00 2.780617428809182071e-02 8.598421716991948571e+00 3.669079446003541278e+01
2.181661564992911639e+00 2.796073600560560618e-02 8.735299129584332078e+00 3.867921378951296418e+01
2.199114857512855181e+00 2.811555614581147389e-02 8.877322284254356433e+00 4.071774234785689117e+01
2.216568150032798723e+00 2.827068290962608116e-02 9.024189231689643265e+00 4.271845466719555873e+01
2.234021442552741821e+00 2.842616496339552337e-02 9.175579639883149952e+00 4.467058137634925430e+01
2.251474735072684918e+00 2.858205154014516192e-02 9.331174201858139838e+00 4.656847282566957347e+01
2.268928027592628460e+00 2.873839248764036708e-02 9.490625365723667883e+00 4.839715009475555973e+01
2.286381320112572002e+00 2.889523838905262015e-02 9.653632615850833432e+00 5.016427245719647487e+01
2.303834612632515100e+00 2.905264060845619625e-02 9.819851147760234156e+00 5.184937186827379207e+01
2.321287905152458197e+00 2.921065141803261614e-02 9.988964512582549915e+00 5.345417203867122424e+01
2.338741197672401295e+00 2.936932405587398820e-02 1.016064236252458208e+01 5.496717198878439348e+01
2.356194490192344837e+00 2.952871285047364153e-02 1.033456191023494064e+01 5.638358511109106530e+01
2.373647782712288379e+00 2.968887329977536182e-02 1.051039432719758970e+01 5.769426989743802636e+01
2.391101075232231477e+00 2.984986219114309572e-02 1.068782399899769331e+01 5.889652038375089660e+01
2.408554367752174574e+00 3.001173770419816519e-02 1.086650525049187088e+01 5.997326960951120611e+01
2.426007660272118116e+00 3.017455953006838512e-02 1.104612315696087421e+01 6.092799615309360206e+01
2.443460952792061214e+00 3.033838899683144810e-02 1.122636561389651000e+01 6.175530448478065892e+01
2.460914245312004311e+00 3.050328919519786422e-02 1.140688711291825896e+01 6.243741308971250703e+01
2.478367537831947853e+00 3.066932512361941060e-02 1.158737541336783572e+01 6.297991389309932941e+01
2.495820830351891395e+00 3.083656382972854368e-02 1.176747929604100484e+01 6.336358250434201977e+01
2.513274122871834493e+00 3.100507457131033637e-02 1.194689824962594038e+01 6.360128625667276481e+01
2.530727415391777591e+00 3.117492898468370369e-02 1.212526086930561497e+01 6.366314686786650157e+01
2.548180707911721132e+00 3.134620125703748567e-02 1.230231001631432086e+01 6.358628471180550434e+01
2.565634000431664674e+00 3.151896833498522843e-02 1.247771898163654747e+01 6.334261718579181633e+01
2.583087292951607772e+00 3.169331010539600674e-02 1.265113409308268544e+01 6.291945480141589542e+01
2.600540585471550870e+00 3.186930965245952235e-02 1.282222155610719483e+01 6.232178982770039255e+01
2.617993877991494411e+00 3.204705345521054877e-02 1.299065343277375284e+01 6.155039171385000429e+01
2.635447170511437509e+00 3.222663169474235950e-02 1.315610089375662284e+01 6.060432196521495740e+01
2.652900463031380607e+00 3.240813849178610789e-02 1.331823647076748607e+01 5.948427249351158963e+01
2.670353755551324149e+00 3.259167221230913070e-02 1.347673831103978692e+01 5.819333409361245657e+01
2.687807048071267690e+00 3.277733587114199654e-02 1.363128890733365850e+01 5.673495400569733960e+01
2.705260340591210788e+00 3.296523741372017757e-02 1.378162186166300707e+01 5.513078555626329802e+01
2.722713633111153886e+00 3.315548988507091566e-02 1.392726737081440369e+01 5.330926670514398324e+01
2.740166925631096984e+00 3.334821265952222363e-02 1.406806959701175863e+01 5.139028127832949622e+01
2.757620218151040525e+00 3.354353138349950442e-02 1.420361863530013125e+01 4.928577268540941247e+01
2.775073510670984067e+00 3.374157498631408236e-02 1.433388981031093756e+01 4.714347349590907044e+01
2.792526803190927165e+00 3.394248986236351323e-02 1.445898123139597580e+01 4.501146319380221428e+01
2.809980095710870263e+00 3.414638345254521895e-02 1.457899511828057371e+01 4.290674045851971385e+01
2.827433388230813804e+00 3.435322372879787839e-02 1.469403430433085589e+01 4.086219997357549261e+01
2.844886680750756902e+00 3.456298388642491115e-02 1.480420121686348267e+01 3.887614213833491306e+01
2.862339973270700000e+00 3.477564465037920327e-02 1.490959686639664383e+01 3.694632279109956841e+01
2.879793265790643542e+00 3.499116494606870770e-02 1.501030367094883999e+01 3.506954445341845172e+01
2.897246558310587083e+00 3.520950858591345711e-02 1.510640281075546554e+01 3.324375092212814309e+01
2.914699850830530625e+00 3.543064931329935330e-02 1.519802225668459528e+01 3.148299263631788492e+01
2.932153143350473723e+00 3.565456063691459232e-02 1.528553819429822092e+01 2.987183018268331480e+01
2.949606435870416821e+00 3.588120227963145087e-02 1.536932210726783055e+01 2.840832625463123051e+01
2.967059728390360362e+00 3.611053839028400408e-02 1.544970211873508426e+01 2.707482981934376198e+01
2.984513020910303460e+00 3.634254262066646118e-02 1.552696664321764608e+01 2.585478058669835377e+01
3.001966313430246558e+00 3.657719234348379839e-02 1.560137002256234062e+01 2.473462653500047637e+01
3.019419605950190100e+00 3.681445421724292150e-02 1.567313766511806072e+01 2.370427502437147638e+01
3.036872898470133197e+00 3.705428228784721223e-02 1.574247031984264922e+01 2.275520243413525989e+01
3.054326190990076295e+00 3.729664183273027900e-02 1.580954755816182100e+01 2.187784247962586548e+01
3.071779483510019837e+00 3.754150761044566104e-02 1.587453066565683280e+01 2.106411811205171247e+01
3.089232776029963379e+00 3.778884972436062639e-02 1.593756505700902792e+01 2.030820180808336772e+01
3.106686068549906921e+00 3.803863579736737471e-02 1.599878230938433532e+01 1.960480587532028451e+01
3.124139361069850018e+00 3.829083623949455784e-02 1.605830188260228297e+01 1.894888182185366077e+01
3.141592653589793116e+00 3.854542150931497546e-02 1.611623257230209916e+01 1.833618396175648613e+01
3.159045946109736214e+00 3.880235746483819831e-02 1.617267373600525460e+01 1.776326952747376353e+01
3.176499238629679756e+00 3.906160719019335231e-02 1.622771639922427056e+01 1.722695612025315626e+01
3.193952531149622853e+00 3.932313681410356393e-02 1.628144417598876714e+01 1.672402890755192217e+01
3.211405823669565951e+00 3.958691623105839441e-02 1.633393401527000677e+01 1.625156316572600801e+01
3.228859116189509493e+00 3.985291630517067557e-02 1.638525697846443663e+01 1.580713734090957878e+01
3.246312408709452590e+00 4.012110699484384285e-02 1.643547877226217580e+01 1.538866294862047823e+01
3.263765701229396576e+00 4.039145734645605695e-02 1.648466032806764403e+01 1.499427015767178695e+01
3.281218993749339674e+00 4.066393575146089873e-02 1.653285824641517010e+01 1.462224780341341024e+01
3.298672286269282772e+00 4.093851008344936288e-02 1.658012521862966082e+01 1.427104114842461335e+01
3.316125578789226314e+00 4.121514769943005613e-02 1.662651038222150035e+01 1.393923601652489985e+01
3.333578871309169411e+00 4.149381555464020516e-02 1.667205967008202450e+01 1.362554795865721147e+01
3.351032163829112509e+00 4.177448067545105198e-02 1.671681604409987898e+01 1.332876826831792272e+01
3.368485456349056051e+00 4.205711028111046301e-02 1.676081984351077026e+01 1.304781487125377382e+01
3.385938748868999149e+00 4.234167178374306090e-02 1.680410889253858997e+01 1.278166384047335669e+01
3.403392041388942246e+00 4.262813278835021064e-02 1.684671883535187220e+01 1.252941438137771613e+01
3.420845333908885788e+00 4.291646109281003346e-02 1.688868323291482909e+01 1.229021581541817199e+01
3.438298626428828886e+00 4.320662468787739297e-02 1.693003374124235094e+01 1.206328969421426933e+01
