# angles(rad), pulling distance(m),                                     elastic band force(n), cable force(n)
0.000000000000000000e+00 2.416486173134558472e-04 7.762078905074941415e-02 1.246642120249667057e-01
1.745329251994329547e-02 4.857063749333156511e-04 1.555355611906825974e-01 2.482715142516442042e-01
3.490658503988659095e-02 7.321003166391861850e-04 2.337198436617587138e-01 3.708130595548512209e-01
5.235987755982988295e-02 9.807563372815602653e-04 3.121489426501646292e-01 4.922776504464022040e-01
6.981317007977318190e-02 1.231609178805699893e-03 3.907979432863147862e-01 6.126274572650960426e-01
8.726646259971647390e-02 1.484588058651312983e-03 4.696417096448513573e-01 7.318460981813937893e-01
1.047197551196597659e-01 1.739608356986239741e-03 5.486548847446441890e-01 8.499512540909773817e-01
1.221730476396030718e-01 1.996608863070916361e-03 6.278118905487909407e-01 9.668406926737561635e-01
1.396263401595463638e-01 2.255522835141659643e-03 7.070869658522040968e-01 1.082490296210814718e+00
1.570796326794896558e-01 2.516264450616560386e-03 7.864543178319605143e-01 1.196947340870045284e+00
1.745329251994329478e-01 2.778753998701019579e-03 8.658881599348892122e-01 1.310163087959075989e+00
1.919862177193762398e-01 3.042922803015982690e-03 9.453627118775703719e-01 1.422050535918107039e+00
2.094395102393195318e-01 3.308704335255473541e-03 1.024852199646336226e+00 1.532555247577803259e+00
2.268928027592628516e-01 3.576030039163596418e-03 1.104330855497270836e+00 1.641644082976055685e+00
2.443460952792061436e-01 3.844829306324557428e-03 1.183772917956209758e+00 1.749286057933412852e+00
2.617993877991494078e-01 4.115029476162667538e-03 1.263152664250836388e+00 1.855452905149703957e+00
2.792526803190927276e-01 4.386555835942339970e-03 1.342444674525340220e+00 1.960125289710183294e+00
2.967059728390360474e-01 4.659332754056306515e-03 1.421623960587798940e+00 2.063282535540602147e+00
3.141592653589793116e-01 4.933287380935821691e-03 1.500665942442274137e+00 2.164876927673095253e+00
3.316125578789225758e-01 5.208347453368277272e-03 1.579545688709939943e+00 2.264853674359112556e+00
3.490658503988658956e-01 5.484440462254547288e-03 1.658237025922217667e+00 2.363132799180754695e+00
3.665191429188092154e-01 5.761493652608988027e-03 1.736712762435249191e+00 2.459632624503045761e+00
3.839724354387524796e-01 6.039434023559444101e-03 1.814946435539197322e+00 2.554323534461635958e+00
4.014257279586957439e-01 6.318188328347238911e-03 1.892912945826714211e+00 2.647202466999078130e+00
4.188790204786390636e-01 6.597683074881693747e-03 1.970587930985790992e+00 2.738251616387849641e+00
4.363323129985823834e-01 6.877845018408016049e-03 2.047947183273613803e+00 2.827430107546262228e+00
4.537856055185257032e-01 7.158602559040890857e-03 2.124964944745596274e+00 2.914615274122711597e+00
4.712388980384689674e-01 7.439885987872074322e-03 2.201613403066812413e+00 2.999648323856197507e+00
4.886921905584122872e-01 7.721627097664894405e-03 2.277865691918081748e+00 3.082483646640342467e+00
5.061454830783556069e-01 8.003755397199389249e-03 2.353696867406223081e+00 3.163163718291699844e+00
5.235987755982988157e-01 8.286195980157451402e-03 2.429083479521380262e+00 3.241750391323976022e+00
5.410520681182421354e-01 8.568871193701204855e-03 2.504000203367576560e+00 3.318145397234709915e+00
5.585053606381854552e-01 8.851706245060783282e-03 2.578419067970361134e+00 3.392136487082299645e+00
5.759586531581287749e-01 9.134630186929729861e-03 2.652313300997144463e+00 3.463663340564944182e+00
5.934119456780720947e-01 9.417574656759854571e-03 2.725661055827526269e+00 3.532868463440661522e+00
6.108652381980153034e-01 9.700472302484681314e-03 2.798438937553819450e+00 3.599613872602659193e+00
6.283185307179586232e-01 9.983249089241204299e-03 2.870614738238791208e+00 3.663471099713351720e+00
6.457718232379019430e-01 1.026582360237331126e-02 2.942162208953978286e+00 3.724756740287698875e+00
6.632251157578451517e-01 1.054812003867484395e-02 3.013077450590294415e+00 3.784552123238849486e+00
6.806784082777884715e-01 1.083007089258526678e-02 3.083381836455117764e+00 3.844203048017716284e+00
6.981317007977317912e-01 1.111161360586538326e-02 3.153109329852944676e+00 3.904530282785267481e+00
7.155849933176750000e-01 1.139267437606403255e-02 3.222289944960419206e+00 3.965690414379659856e+00
7.330382858376184307e-01 1.167316770054087696e-02 3.290952754927875645e+00 4.028011433871827585e+00
7.504915783575616395e-01 1.195302571508263453e-02 3.359126213160704921e+00 4.091418481737704838e+00
7.679448708775049592e-01 1.223218543980183690e-02 3.426837673351403879e+00 4.155975274236243244e+00
7.853981633974482790e-01 1.251057329776904432e-02 3.494113715370820827e+00 4.221989831963150586e+00
8.028514559173914877e-01 1.278810390290337912e-02 3.560980146514681977e+00 4.289797762238278800e+00
8.203047484373349185e-01 1.306470744355990588e-02 3.627462050035237695e+00 4.359318421277571076e+00
8.377580409572781273e-01 1.334032545395951938e-02 3.693583849752611670e+00 4.430523447988187868e+00
8.552113334772214470e-01 1.361488741342625243e-02 3.759369356590558375e+00 4.503756073760104783e+00
8.726646259971647668e-01 1.388830241046335769e-02 3.824841817072571093e+00 4.579518450559788789e+00
8.901179185171079755e-01 1.416049826671109645e-02 3.890023957238255559e+00 4.657677202069502975e+00
9.075712110370514063e-01 1.443140823688566533e-02 3.954938026173694166e+00 4.738310655399531335e+00
9.250245035569946150e-01 1.470096355573843709e-02 4.019605838257797714e+00 4.821628378674261306e+00
9.424777960769379348e-01 1.496909547402370567e-02 4.084048810315355382e+00 4.907812636555313190e+00
9.599310885968812546e-01 1.523573397825804358e-02 4.148288000075013748e+00 4.997077612247877276e+00
9.773843811168245743e-01 1.550080304635846444e-02 4.212344143611781000e+00 5.089739874650956786e+00
9.948376736367677831e-01 1.576421888196816862e-02 4.276237687991445213e+00 5.186172309331141150e+00
1.012290966156711214e+00 1.602591036801553903e-02 4.339988826436661284e+00 5.286362821807177426e+00
1.029744258676654312e+00 1.628580796826557472e-02 4.403617531835307908e+00 5.390516925741078325e+00
1.047197551196597631e+00 1.654384082661327152e-02 4.467143586448376169e+00 5.498912217116732393e+00
1.064650843716540951e+00 1.679993834855164278e-02 4.530586615308791920e+00 5.611810204450460304e+00
1.082104136236484271e+00 1.705402969382002754e-02 4.593966116494465624e+00 5.729500164985229738e+00
1.099557428756427591e+00 1.730604404540401695e-02 4.657301489566780361e+00 5.852284314325086001e+00
1.117010721276370910e+00 1.755591060562346900e-02 4.720612068014721885e+00 5.980485751912156367e+00
1.134464013796314230e+00 1.780355872618722204e-02 4.783917147206973475e+00 6.114446844250216451e+00
1.151917306316257550e+00 1.804891397799546909e-02 4.847236013289111689e+00 6.254634570321802478e+00
1.169370598836200648e+00 1.829189176415828288e-02 4.910587974795223687e+00 6.401724726867549009e+00
1.186823891356144189e+00 1.853242027183241505e-02 4.973992389764272382e+00 6.555835742363830043e+00
1.204277183876087287e+00 1.877042937701360950e-02 5.037468696326312667e+00 6.717388123056513116e+00
1.221730476396030607e+00 1.900584835170530257e-02 5.101036443745252669e+00 6.886900188386717581e+00
1.239183768915973927e+00 1.923860762158019488e-02 5.164715320409562160e+00 7.064880167208803741e+00
1.256637061435917246e+00 1.946863725823338998e-02 5.228525186760192511e+00 7.251924104915985048e+00
1.274090353955860566e+00 1.969587047779387812e-02 5.292486106669946899e+00 7.448564973179314208e+00
1.291543646475803886e+00 1.992023742229215647e-02 5.356618377869124537e+00 7.655586327304080285e+00
1.308996938995747206e+00 2.014164921577044076e-02 5.420942567662756062e+00 7.874416558956164991e+00
1.326450231515690303e+00 2.036002875345073113e-02 5.485479546172662424e+00 8.105527636617736675e+00
1.343903524035633845e+00 2.057530707713587509e-02 5.550250520443901436e+00 8.349543221647909519e+00
1.361356816555576943e+00 2.078742544494313962e-02 5.615277073707452438e+00 8.607036663010946498e+00
1.378810109075520263e+00 2.099631049411679676e-02 5.680581202383057970e+00 8.879654318491885689e+00
1.396263401595463582e+00 2.120189973820732834e-02 5.746185354894596919e+00 9.168126038151992674e+00
1.413716694115406902e+00 2.140427007954703517e-02 5.812112475821133550e+00 9.467193648422995267e+00
1.431169986635350000e+00 2.160356991452262732e-02 5.878386048770627426e+00 9.773757381088680418e+00
1.448623279155293542e+00 2.179995600413691184e-02 5.945030141203868190e+00 1.008730147402386557e+01
1.466076571675236861e+00 2.199356891865576757e-02 6.012069455051481270e+00 1.040852600335182032e+01
1.483529864195180181e+00 2.218454299423414447e-02 6.079529378005162243e+00 1.073770306762265214e+01
1.500983156715123279e+00 2.237300623130809504e-02 6.147436036636329426e+00 1.107515308762838480e+01
1.518436449235066599e+00 2.255907961063457340e-02 6.215816354789626352e+00 1.142128716803772548e+01
1.535889741755009918e+00 2.274287824476637146e-02 6.284698116398073076e+00 1.177650420199399939e+01
1.553343034274953460e+00 2.292451177993081249e-02 6.354110030262402731e+00 1.214123090501278845e+01
1.570796326794896558e+00 2.310408467486767606e-02 6.424081799464141262e+00 1.251593034581429897e+01
1.588249619314839878e+00 2.328169666430598625e-02 6.494644197004166841e+00 1.290109038132220753e+01
1.605702911834782975e+00 2.345744305969902493e-02 6.565829147109049302e+00 1.329723489317887619e+01
1.623156204354726295e+00 2.363141509383788127e-02 6.637669811271826426e+00 1.370492131380085787e+01
1.640609496874669837e+00 2.380370019094662018e-02 6.710200681049031779e+00 1.412474729224289227e+01
1.658062789394613157e+00 2.397438224086875097e-02 6.783457678379825495e+00 1.455735214292695900e+01
1.675516081914556255e+00 2.414354185885984883e-02 6.857478264343573215e+00 1.500342000615915694e+01
1.692969374434499574e+00 2.431125659213133686e-02 6.932301556973103907e+00 1.546368699623744014e+01
1.710422666954442894e+00 2.447760116452069382e-02 7.007968458485707153e+00 1.593894082430510117e+01
1.727875959474386436e+00 2.464264764014216860e-02 7.084521793540325518e+00 1.643003185982850667e+01
1.745329251994329534e+00 2.480646564492076933e-02 7.162006459783339274e+00 1.693787202806630532e+01
1.762782544514272853e+00 2.496912250405089809e-02 7.240469592035680968e+00 1.746344808965138995e+01
1.780235837034215951e+00 2.513068343524704415e-02 7.319960741664921500e+00 1.800782188762637759e+01
1.797689129554159271e+00 2.529121167450327015e-02 7.400532072907177294e+00 1.857214418403373912e+01
1.815142422074102813e+00 2.545076863549806598e-02 7.482238578157310194e+00 1.915765886544101804e+01
1.832595714594046132e+00 2.560941403675179306e-02 7.565138314533193409e+00 1.976571545615985315e+01
1.850049007113989230e+00 2.576720602187558898e-02 7.649292664341714065e+00 2.039778034853108934e+01
1.867502299633932550e+00 2.592420129810798363e-02 7.734766622431251903e+00 2.105544618869326001e+01
1.884955592153875870e+00 2.608045521663386601e-02 7.821629113807563094e+00 2.174045290692208354e+01
1.902408884673818967e+00 2.623602192336340830e-02 7.909953345491459231e+00 2.245469376396225059e+01
1.919862177193762509e+00 2.639095441080191798e-02 7.999817198310142707e+00 2.320024699695812842e+01
1.937315469713705829e+00 2.654530466571853806e-02 8.091303662776720529e+00 2.397938265255170265e+01
1.954768762233649149e+00 2.669912372009999174e-02 8.184501324181313819e+00 2.479459993574308285e+01
1.972222054753592246e+00 2.685246176787468506e-02 8.279504906410776854e+00 2.564864482790367006e+01
1.989675347273535566e+00 2.700536824313816420e-02 8.376415884413713542e+00 2.654454803562391163e+01
2.007128639793478886e+00 2.715789188995777759e-02 8.475343168110798686e+00 2.748566191226315780e+01
2.024581932313422428e+00 2.731008087418516916e-02 8.576403880688035386e+00 2.847569723697928268e+01
2.042035224833365525e+00 2.746198281883662634e-02 8.679724233184771265e+00 2.951878494395913677e+01
2.059488517353308623e+00 2.761364492435213619e-02 8.785440523097800991e+00 3.061952009028783550e+01
2.076941809873252165e+00 2.776511400926093623e-02 8.893700269227819533e+00 3.178304450320017338e+01
2.094395102393195263e+00 2.791643659824995932e-02 9.004663509767784291e+00 3.301511855207265000e+01
2.111848394913138804e+00 2.806765900111340278e-02 9.118504292925912580e+00 3.432221847694156480e+01
2.129301687433081902e+00 2.821882735630223960e-02 9.235412394431392613e+00 3.571165831315762063e+01
2.146754979953025444e+00 2.836998774190479036e-02 9.355595304811838986e+00 3.719171089673869801e+01
2.164208272472968542e+00 2.852118620454971790e-02 9.479280538254670319e+00 3.877179059014228102e+01
2.181661564992911639e+00 2.867246886048762516e-02 9.606718441415178944e+00 4.046267058299864061e+01
2.199114857512855181e+00 2.882388195413314660e-02 9.738184928749191727e+00 4.227656059220782936e+01
2.216568150032798723e+00 2.897547191810892139e-02 9.873645052656659260e+00 4.411522858020337878e+01
2.234021442552741821e+00 2.912728547518828037e-02 1.001285709179956740e+01 4.590862239883133356e+01
2.251474735072684918e+00 2.927936966916765832e-02 1.015558678445606411e+01 4.765464913100505129e+01
2.268928027592628460e+00 2.943177198117486945e-02 1.030159489992804822e+01 4.934690418683091906e+01
2.286381320112572002e+00 2.958454037396909125e-02 1.045063584662480949e+01 5.097823678298667716e+01
2.303834612632515100e+00 2.973772338152779610e-02 1.060248646571944597e+01 5.255132927015415589e+01
2.321287905152458197e+00 2.989137019797653491e-02 1.075689383190506021e+01 5.405070158016864212e+01
2.338741197672401295e+00 3.004553073035079805e-02 1.091362556156897945e+01 5.547825324760692922e+01
2.356194490192344837e+00 3.020025572680351544e-02 1.107244728726577598e+01 5.682808938980269176e+01
2.373647782712288379e+00 3.035559681681287980e-02 1.123311666815559740e+01 5.809209592989519422e+01
2.391101075232231477e+00 3.051160664692570412e-02 1.139540146807957122e+01 5.926871550219791374e+01
2.408554367752174574e+00 3.066833894442688030e-02 1.155905855323946341e+01 6.034881961714053489e+01
2.426007660272118116e+00 3.082584863358450722e-02 1.172383967893803813e+01 6.132535433651100476e+01
2.443460952792061214e+00 3.098419194285169723e-02 1.188952497466960523e+01 6.220406377297250344e+01
2.460914245312004311e+00 3.114342649685961084e-02 1.205586717402391628e+01 6.296998391287940677e+01
2.478367537831947853e+00 3.130361146687032914e-02 1.222261365660821220e+01 6.361638782620487831e+01
2.495820830351891395e+00 3.146480764960815635e-02 1.238954708387725567e+01 6.415256000157931737e+01
2.513274122871834493e+00 3.162707765092331869e-02 1.255641453876450164e+01 6.456082207466667455e+01
2.530727415391777591e+00 3.179048596787242831e-02 1.272298793362220337e+01 6.484710608386660624e+01
2.548180707911721132e+00 3.195509919582412844e-02 1.288902193700936749e+01 6.500133490409947967e+01
2.565634000431664674e+00 3.212098612700512584e-02 1.305427343456321765e+01 6.502134373036508919e+01
2.583087292951607772e+00 3.228821797853000108e-02 1.321853467290205408e+01 6.491864003768489511e+01
2.600540585471550870e+00 3.245686851390282290e-02 1.338154766675619989e+01 6.467118953218025013e+01
2.617993877991494411e+00 3.262701429607232917e-02 1.354307139458639853e+01 6.428391435953409427e+01
2.635447170511437509e+00 3.279873483540582391e-02 1.370286788618425255e+01 6.375679407774902074e+01
2.652900463031380607e+00 3.297211287652289380e-02 1.386069996534875237e+01 6.308939356192980341e+01
2.670353755551324149e+00 3.314723457888239799e-02 1.401632537723187788e+01 6.227944282547326793e+01
2.687807048071267690e+00 3.332418982734643847e-02 1.416949537278566140e+01 6.132458805509836708e+01
2.705260340591210788e+00 3.350307248200760923e-02 1.431996092976752166e+01 6.022554007086942107e+01
2.722713633111153886e+00 3.368398072856816639e-02 1.446750536531578035e+01 5.899675535803699944e+01
2.740166925631096984e+00 3.386701734180003892e-02 1.461191439630508704e+01 5.764126536246639887e+01
2.757620218151040525e+00 3.405229002077444361e-02 1.475292803026001565e+01 5.614330198436540087e+01
2.775073510670984067e+00 3.423991217603578052e-02 1.489028398787141327e+01 5.450500271172500533e+01
2.792526803190927165e+00 3.443000276342642052e-02 1.502374129934601577e+01 5.273875339183162936e+01
2.809980095710870263e+00 3.462268595162112245e-02 1.515314138607431005e+01 5.088191211531061953e+01
2.827433388230813804e+00 3.481809635587041624e-02 1.527832232270221979e+01 4.893686970779366163e+01
2.844886680750756902e+00 3.501633893996811825e-02 1.539939481325617621e+01 4.702428319199338347e+01
2.862339973270700000e+00 3.521740942082406123e-02 1.551639509640351200e+01 4.514393689160714729e+01
2.879793265790643542e+00 3.542128245555904720e-02 1.562943069922503625e+01 4.332799879936656140e+01
2.897246558310587083e+00 3.562794339065254029e-02 1.573854286040596229e+01 4.154792062081465076e+01
2.914699850830530625e+00 3.583736460428046250e-02 1.584383578712503748e+01 3.982986755694103209e+01
2.932153143350473723e+00 3.604952074135408385e-02 1.594535490611216311e+01 3.815016629577475271e+01
2.949606435870416821e+00 3.626439406742346105e-02 1.604319806477546706e+01 3.652657131606459018e+01
2.967059728390360362e+00 3.648196960163165026e-02 1.613742010817855288e+01 3.494190427660267773e+01
2.984513020910303460e+00 3.670222307610190166e-02 1.622810640195183751e+01 3.340848148005736107e+01
3.001966313430246558e+00 3.692512107482198019e-02 1.631533489037846252e+01 3.192406411977619740e+01
3.019419605950190100e+00 3.715064216225695548e-02 1.639927386035168055e+01 3.051905637302204255e+01
3.036872898470133197e+00 3.737877178809449058e-02 1.648017647067717917e+01 2.922218651364815045e+01
3.054326190990076295e+00 3.760949003730827689e-02 1.655827807402824092e+01 2.802613297216909416e+01
3.071779483510019837e+00 3.784277437085213636e-02 1.663378834902170667e+01 2.692040895625838459e+01
3.089232776029963379e+00 3.807860222455380222e-02 1.670689527192703139e+01 2.589578977759697409e+01
3.106686068549906921e+00 3.831695055371273084e-02 1.677776804028918534e+01 2.494430886403299752e+01
3.124139361069850018e+00 3.855779576796713320e-02 1.684655948973506057e+01 2.405900505564778413e+01
3.141592653589793116e+00 3.880111521871022068e-02 1.691340816002577085e+01 2.323363056526787673e+01
3.159045946109736214e+00 3.904688779732589515e-02 1.697844003392897960e+01 2.246263146154757706e+01
3.176499238629679756e+00 3.929509285266827995e-02 1.704177002753642611e+01 2.174120074659063917e+01
3.193952531149622853e+00 3.954570948474049608e-02 1.710350327328887943e+01 2.106513765801363292e+01
3.211405823669565951e+00 3.979871631581874403e-02 1.716373621357232437e+01 2.043071908349353549e+01
3.228859116189509493e+00 4.005409116794383939e-02 1.722255752624528569e+01 1.983463588621275164e+01
3.246312408709452590e+00 4.031181114642536784e-02 1.728004896990464800e+01 1.927392217781645556e+01
3.263765701229396576e+00 4.057185358167474803e-02 1.733628611475234393e+01 1.874584877697898477e+01
3.281218993749339674e+00 4.083419650881046220e-02 1.739133891654537933e+01 1.824790827680246608e+01
3.298672286269282772e+00 4.109881861622935451e-02 1.744527233258640919e+01 1.777786330552210003e+01
3.316125578789226314e+00 4.136569869949006939e-02 1.749814675649263762e+01 1.733371066645611691e+01
3.333578871309169411e+00 4.163481534978304144e-02 1.755001847050557728e+01 1.691366063810635723e+01
3.351032163829112509e+00 4.190614695029801912e-02 1.760094002357817189e+01 1.651608584914339772e+01
3.368485456349056051e+00 4.217967169138233524e-02 1.765096055734287361e+01 1.613949921016169498e+01
3.385938748868999149e+00 4.245536768011293899e-02 1.770012612085266213e+01 1.578254146773904942e+01
3.403392041388942246e+00 4.273321298846154137e-02 1.774847993478533681e+01 1.544396595096953106e+01
3.420845333908885788e+00 4.301318565350226164e-02 1.779606261679732881e+01 1.512262613990154847e+01
3.438298626428828886e+00 4.329526367741164117e-02 1.784291244265448384e+01 1.481748434595156105e+01
