# angles(rad), pulling distance(m),                                     elastic band force(n), cable force(n)
0.000000000000000000e+00 1.934876691408207142e-04 6.348606255566884016e-02 1.041534108276663539e-01
1.745329251994329547e-02 3.885299225042379090e-04 1.262087043423128774e-01 2.029340621406124645e-01
3.490658503988659095e-02 5.851441796460955325e-04 1.881961385299810996e-01 2.966670861280320537e-01
5.235987755982988295e-02 7.833479249784952667e-04 2.494771159806555283e-01 3.856688351986131691e-01
6.981317007977318190e-02 9.831587077697967990e-04 3.100809252482512046e-01 4.702470254293674157e-01
8.726646259971647390e-02 1.184594142144780289e-03 3.700373925786161200e-01 5.507008959965917771e-01
1.047197551196597659e-01 1.387671916219424808e-03 4.293768819095313827e-01 6.273213555523579066e-01
1.221730476396030718e-01 1.592409825818326191e-03 4.881295975733441761e-01 7.003817590377484636e-01
1.396263401595463638e-01 1.798825782252327574e-03 5.463167841663854052e-01 7.700140340013792439e-01
1.570796326794896558e-01 2.006937812318518310e-03 6.039447011039885682e-01 8.361860450608422646e-01
1.745329251994329478e-01 2.216764052475530839e-03 6.610045439669577361e-01 8.987630761109712818e-01
1.919862177193762398e-01 2.428322723203980328e-03 7.174779920088182328e-01 9.576174770661316504e-01
2.094395102393195318e-01 2.641632121953770094e-03 7.733484873807711102e-01 1.012786200194488284e+00
2.268928027592628516e-01 2.856710623143883868e-03 8.286026001709186906e-01 1.064348627936176683e+00
2.443460952792061436e-01 3.073576678162384928e-03 8.832283063167094550e-01 1.112367952568347862e+00
2.617993877991494078e-01 3.292248803743834731e-03 9.372106351169683380e-01 1.156818970992695261e+00
2.792526803190927276e-01 3.512745511464190288e-03 9.905311404793712970e-01 1.197651011064996496e+00
2.967059728390360474e-01 3.735085281296317804e-03 1.043175941275431118e+00 1.234996997279248498e+00
3.141592653589793116e-01 3.959286561563114815e-03 1.095147712699739095e+00 1.269322961326407873e+00
3.316125578789225758e-01 4.185367768937508885e-03 1.146465720376642183e+00 1.301177070904528499e+00
3.490658503988658956e-01 4.413347288442460645e-03 1.197156558445320540e+00 1.330928089040252171e+00
3.665191429188092154e-01 4.643243473450959016e-03 1.247248898953714269e+00 1.358822386347975808e+00
3.839724354387524796e-01 4.875074645686026421e-03 1.296772740770782528e+00 1.385084832800235199e+00
4.014257279586957439e-01 5.108859095220715310e-03 1.345756681543289757e+00 1.409855653661448383e+00
4.188790204786390636e-01 5.344615080478109029e-03 1.394227244914681307e+00 1.433239965360286305e+00
4.363323129985823834e-01 5.582360828231322687e-03 1.442209178727558827e+00 1.455335921083679818e+00
4.537856055185257032e-01 5.822114533603502291e-03 1.489726310464882131e+00 1.476255001711653358e+00
4.712388980384689674e-01 6.063894025269525416e-03 1.536801699685472311e+00 1.496105762921589255e+00
4.886921905584122872e-01 6.307715923215427914e-03 1.583457627050060657e+00 1.514992801199141592e+00
5.061454830783556069e-01 6.553597291750563360e-03 1.629715554795199361e+00 1.533000748043099604e+00
5.235987755982988157e-01 6.801556136460220128e-03 1.675596117837359955e+00 1.550202683990857810e+00
5.410520681182421354e-01 7.051611404205622262e-03 1.721119141733106872e+00 1.566664612247190558e+00
5.585053606381854552e-01 7.303782983123927736e-03 1.766303786881093352e+00 1.582450531818699879e+00
5.759586531581287749e-01 7.558091612396915585e-03 1.811168617929652447e+00 1.597621250135393689e+00
5.934119456780720947e-01 7.814557729574211561e-03 1.855731605012557184e+00 1.612239161525264031e+00
6.108652381980153034e-01 8.073200674468398660e-03 1.900010170231402062e+00 1.626368047144647111e+00
6.283185307179586232e-01 8.334037392859396792e-03 1.944021259114693922e+00 1.640077611650749612e+00
6.457718232379019430e-01 8.597077709757428021e-03 1.987781346696588347e+00 1.653462990976003244e+00
6.632251157578451517e-01 8.862309853947904215e-03 2.031306445579885711e+00 1.666706239094649433e+00
6.806784082777884715e-01 9.129654857689486341e-03 2.074612180305472897e+00 1.680274616720044412e+00
6.981317007977317912e-01 9.398982572940396685e-03 2.117713827497118562e+00 1.694533259613021370e+00
7.155849933176750000e-01 9.670144924165239436e-03 2.160626316252702850e+00 1.709637272327922952e+00
7.330382858376184307e-01 9.942988811755754455e-03 2.203364244105587844e+00 1.725661200069432688e+00
7.504915783575616395e-01 1.021736823923668699e-02 2.245941944491245845e+00 1.742605924833336539e+00
7.679448708775049592e-01 1.049315005788749311e-02 2.288373504569957362e+00 1.760436172274268962e+00
7.853981633974482790e-01 1.077022137760749385e-02 2.330672765245743072e+00 1.779067839766149461e+00
8.028514559173914877e-01 1.104838634262102909e-02 2.372853341567647156e+00 1.799082092703680136e+00
8.203047484373349185e-01 1.132754902532197988e-02 2.414928681999477078e+00 1.819887698288204847e+00
8.377580409572781273e-01 1.160755343785368349e-02 2.456912079122797188e+00 1.841926607196149979e+00
8.552113334772214470e-01 1.188824387557620849e-02 2.498816669675982816e+00 1.865255729049082989e+00
8.726646259971647668e-01 1.216948808150549940e-02 2.540655454799983559e+00 1.889780045357112304e+00
8.901179185171079755e-01 1.245114752035434563e-02 2.582441353329953948e+00 1.915604759969633530e+00
9.075712110370514063e-01 1.273308253646618891e-02 2.624187210459887343e+00 1.942804868314031319e+00
9.250245035569946150e-01 1.301515569933434091e-02 2.665905797764963392e+00 1.971435755182999294e+00
9.424777960769379348e-01 1.329722439581209822e-02 2.707609831489453001e+00 2.001609060757642666e+00
9.599310885968812546e-01 1.357912883871650357e-02 2.749312023884727285e+00 2.033531961991136949e+00
9.773843811168245743e-01 1.386074369511901445e-02 2.791025092150736686e+00 2.067046847035425738e+00
9.948376736367677831e-01 1.414192451993368134e-02 2.832761758442679856e+00 2.102384333544584205e+00
1.012290966156711214e+00 1.442252650095220308e-02 2.874534766382538020e+00 2.139649249510656936e+00
1.029744258676654312e+00 1.470240983645450424e-02 2.916356933123450901e+00 2.178914398640622974e+00
1.047197551196597631e+00 1.498144102811860799e-02 2.958241159586226576e+00 2.220247168796241510e+00
1.064650843716540951e+00 1.525946096159582627e-02 3.000200430462730328e+00 2.263978358873761199e+00
1.082104136236484271e+00 1.553634010650085245e-02 3.042247830811256826e+00 2.310008082144187735e+00
1.099557428756427591e+00 1.581194388968868575e-02 3.084396601122894044e+00 2.358522121630687973e+00
1.117010721276370910e+00 1.608611718243959515e-02 3.126660148728124256e+00 2.409858172458863468e+00
1.134464013796314230e+00 1.635871720476907154e-02 3.169052047815168471e+00 2.464088840942916914e+00
1.151917306316257550e+00 1.662960632593884699e-02 3.211586059993327247e+00 2.521357077705380423e+00
1.169370598836200648e+00 1.689864615504581280e-02 3.254276194264995592e+00 2.581875853686912858e+00
1.186823891356144189e+00 1.716569721814131463e-02 3.297136717899468827e+00 2.645879866298878724e+00
1.204277183876087287e+00 1.743061916326049676e-02 3.340182156692701021e+00 2.713622054214497759e+00
1.221730476396030607e+00 1.769327096122792417e-02 3.383427327532682050e+00 2.785377711786257038e+00
1.239183768915973927e+00 1.795350108422979346e-02 3.426887402266041160e+00 2.861559240092655276e+00
1.256637061435917246e+00 1.821116786780373198e-02 3.470577915123156831e+00 2.942391854299659659e+00
1.274090353955860566e+00 1.846613066695841632e-02 3.514514765447512179e+00 3.028220385957549166e+00
1.291543646475803886e+00 1.871825012170772601e-02 3.558714276857906977e+00 3.119422744324080732e+00
1.308996938995747206e+00 1.896738864669013022e-02 3.603193254470476337e+00 3.216410471055668907e+00
1.326450231515690303e+00 1.921341014978045561e-02 3.647968987239869065e+00 3.319638374530916813e+00
1.343903524035633845e+00 1.945616840008442677e-02 3.693059267196077577e+00 3.429771718247079715e+00
1.361356816555576943e+00 1.969550738714009874e-02 3.738482484647410509e+00 3.547560406417146872e+00
1.378810109075520263e+00 1.993129635536746921e-02 3.784257657578756540e+00 3.673306898001218901e+00
1.396263401595463582e+00 2.016341273142734092e-02 3.830404435529174201e+00 3.807590527371191857e+00
1.413716694115406902e+00 2.039169717266569107e-02 3.876943183306574170e+00 3.951826063494846775e+00
1.431169986635350000e+00 2.061602703548758367e-02 3.923895061872924472e+00 4.106324546688489896e+00
1.448623279155293542e+00 2.083660868675243569e-02 3.971282032365515580e+00 4.265699875904569005e+00
1.466076571675236861e+00 2.105362724134311747e-02 4.019126924415673763e+00 4.430374494873019486e+00
1.483529864195180181e+00 2.126726018948629088e-02 4.067453559851908373e+00 4.600562484608984981e+00
1.500983156715123279e+00 2.147767472626420024e-02 4.116286766184033219e+00 4.776558788507614395e+00
1.518436449235066599e+00 2.168502858807431696e-02 4.165652449764132292e+00 4.958679788853777026e+00
1.535889741755009918e+00 2.188947092361317667e-02 4.215577749286287812e+00 5.147270041631116122e+00
1.553343034274953460e+00 2.209114294443851462e-02 4.266091057285110288e+00 5.342693811609495746e+00
1.570796326794896558e+00 2.229017854320136660e-02 4.317222133041767940e+00 5.545344986398461629e+00
1.588249619314839878e+00 2.248670485287636647e-02 4.369002268665898470e+00 5.755655066941794296e+00
1.605702911834782975e+00 2.268084275624396989e-02 4.421464319589843761e+00 5.974080338487736341e+00
1.623156204354726295e+00 2.287270735149004100e-02 4.474642905499027989e+00 6.201122772490140100e+00
1.640609496874669837e+00 2.306240837813056804e-02 4.528574540670017967e+00 6.437324939597171891e+00
1.658062789394613157e+00 2.325005060745248889e-02 4.583297741257386093e+00 6.683269607081861352e+00
1.675516081914556255e+00 2.343573420106217706e-02 4.638853293007206169e+00 6.939602179425932604e+00
1.692969374434499574e+00 2.361955504076319878e-02 4.695284336369683231e+00 7.207011849575264861e+00
1.710422666954442894e+00 2.380160503260990781e-02 4.752636676385670889e+00 7.486263302500907990e+00
1.727875959474386436e+00 2.398197238766251738e-02 4.810958941299612768e+00 7.778181971530631067e+00
1.745329251994329534e+00 2.416074188168429102e-02 4.870302899083174708e+00 8.083679243426946215e+00
1.762782544514272853e+00 2.433799509577311629e-02 4.930723708923800075e+00 8.403749436223403535e+00
1.780235837034215951e+00 2.451381063970412000e-02 4.992280280792065206e+00 8.739490633766109795e+00
1.797689129554159271e+00 2.468826435962787058e-02 5.055035600912774818e+00 9.092106992488329098e+00
1.815142422074102813e+00 2.486142953214875301e-02 5.119057192190465955e+00 9.462935950530765083e+00
1.832595714594046132e+00 2.503337704551661380e-02 5.184417505789669534e+00 9.853447350607396515e+00
1.850049007113989230e+00 2.520417556873055798e-02 5.251194518495871932e+00 1.026528439725154129e+01
1.867502299633932550e+00 2.537389170986702538e-02 5.319472255958832996e+00 1.070026479808467634e+01
1.884955592153875870e+00 2.554259016459053608e-02 5.389341488748986997e+00 1.116042099141286847e+01
1.902408884673818967e+00 2.571033385613992472e-02 5.460900510480449555e+00 1.164802964252649176e+01
1.919862177193762509e+00 2.587718406888425693e-02 5.534255978154586586e+00 1.216564033178637771e+01
1.937315469713705829e+00 2.604320057337667152e-02 5.609523920802631736e+00 1.271612500349639063e+01
1.954768762233649149e+00 2.620844174410259450e-02 5.686830910781356607e+00 1.330273134410543534e+01
1.972222054753592246e+00 2.637296467115743392e-02 5.766315391186294548e+00 1.392914017894496759e+01
1.989675347273535566e+00 2.653682526835263525e-02 5.848129227474164971e+00 1.459954056669611511e+01
2.007128639793478886e+00 2.670007837666978773e-02 5.932439525101281141e+00 1.531872033469882410e+01
2.024581932313422428e+00 2.686277786118186281e-02 6.019430764515628418e+00 1.609217584015173585e+01
2.042035224833365525e+00 2.702497670389569090e-02 6.109307321781313860e+00 1.692624621029245091e+01
2.059488517353308623e+00 2.718672709546082408e-02 6.202296461922911952e+00 1.782827878550294542e+01
2.076941809873252165e+00 2.734808052376804660e-02 6.298651912517732931e+00 1.880683446077781085e+01
2.094395102393195263e+00 2.750908785725289518e-02 6.398658156619259074e+00 1.987194482645429616e+01
2.111848394913138804e+00 2.766979942609663207e-02 6.502635662313875464e+00 2.103544385363025526e+01
2.129301687433081902e+00 2.783026510462165842e-02 6.610947220304382199e+00 2.231137523630930630e+01
2.146754979953025444e+00 2.799053438988895540e-02 6.724005785555277726e+00 2.371653575373893830e+01
2.164208272472968542e+00 2.815065647707975377e-02 6.842284157868218308e+00 2.527116175206190363e+01
2.181661564992911639e+00 2.831068033554557176e-02 6.966324715439068171e+00 2.699931154663525135e+01
2.199114857512855181e+00 2.847065478614338452e-02 7.096667589820401467e+00 2.891086822706295223e+01
2.216568150032798723e+00 2.863062857450751619e-02 7.233509568813412116e+00 3.093781095588702357e+01
2.234021442552741821e+00 2.879065044386802316e-02 7.376909711780369250e+00 3.305329176415406067e+01
2.251474735072684918e+00 2.895076921130169956e-02 7.526635308224754795e+00 3.519043953452005979e+01
2.268928027592628460e+00 2.911103384275702879e-02 7.682316984432806528e+00 3.731316056566857498e+01
2.286381320112572002e+00 2.927149352639907623e-02 7.843566570204647981e+00 3.941089224757583054e+01
2.303834612632515100e+00 2.943219774837758582e-02 8.010077430736041393e+00 4.149750608584862022e+01
2.321287905152458197e+00 2.959319637219361143e-02 8.181420993613253145e+00 4.353558400741358980e+01
2.338741197672401295e+00 2.975453971610666701e-02 8.357232556911696975e+00 4.553327348511801631e+01
2.356194490192344837e+00 2.991627863184776956e-02 8.537162322244942203e+00 4.748670430412045107e+01
2.373647782712288379e+00 3.007846458818206822e-02 8.720847254202494625e+00 4.938430770166641537e+01
2.391101075232231477e+00 3.024114975665143784e-02 8.907918234317738992e+00 5.121588558314142148e+01
2.408554367752174574e+00 3.040438709756427410e-02 9.098014225936726262e+00 5.297489000897733291e+01
2.426007660272118116e+00 3.056823044942172038e-02 9.290797067965335998e+00 5.465910710346686585e+01
2.443460952792061214e+00 3.073273462457658256e-02 9.485856070671376372e+00 5.623874358253707584e+01
2.460914245312004311e+00 3.089795550748017372e-02 9.682829281514973019e+00 5.771842941740302280e+01
2.478367537831947853e+00 3.106395015578334098e-02 9.881359730261408458e+00 5.909078399596613451e+01
2.495820830351891395e+00 3.123077690656337821e-02 1.008112983637220950e+01 6.035927594682318187e+01
2.513274122871834493e+00 3.139849548983741911e-02 1.028169956788858030e+01 6.147791382466947141e+01
2.530727415391777591e+00 3.156716714762163034e-02 1.048273354842804217e+01 6.247005809568648971e+01
2.548180707911721132e+00 3.173685475807262041e-02 1.068388303136720019e+01 6.332393808334744989e+01
2.565634000431664674e+00 3.190762296698930467e-02 1.088472835553638340e+01 6.400918557762099681e+01
2.583087292951607772e+00 3.207953832756978846e-02 1.108490796454761451e+01 6.453677364187038279e+01
2.600540585471550870e+00 3.225266945000466318e-02 1.128409536070714836e+01 6.491177153202384886e+01
2.617993877991494411e+00 3.242708716006276887e-02 1.148194190338533360e+01 6.512132592670248243e+01
2.635447170511437509e+00 3.260286466763687857e-02 1.167807434074907746e+01 6.515194167264209568e+01
2.652900463031380607e+00 3.278007774706399174e-02 1.187210484204799599e+01 6.499380467352402491e+01
2.670353755551324149e+00 3.295880493038370884e-02 1.206365327270930266e+01 6.464528253365689636e+01
2.687807048071267690e+00 3.313912771480749531e-02 1.225232730684080096e+01 6.409883331904235604e+01
2.705260340591210788e+00 3.332113078580883209e-02 1.243781655746063031e+01 6.338028418688942622e+01
2.722713633111153886e+00 3.350490225743451428e-02 1.261976205141978902e+01 6.247185212646784436e+01
2.740166925631096984e+00 3.369053393155059528e-02 1.279776324259407971e+01 6.135852387248700524e+01
2.757620218151040525e+00 3.387812157791764839e-02 1.297146969881712231e+01 6.005800693765442588e+01
2.775073510670984067e+00 3.406776523760947362e-02 1.314053425247209894e+01 5.857297211497257905e+01
2.792526803190927165e+00 3.425956955181853891e-02 1.330456073415257023e+01 5.688871745472032160e+01
2.809980095710870263e+00 3.445364412051134945e-02 1.346320030724330330e+01 5.502514738437303521e+01
2.827433388230813804e+00 3.465010388952226988e-02 1.361618648834448386e+01 5.301564749110269759e+01
2.844886680750756902e+00 3.484906957600639871e-02 1.376360601482871004e+01 5.098930165486890331e+01
2.862339973270700000e+00 3.505066817965601933e-02 1.390556879002915380e+01 4.896048634355000218e+01
2.879793265790643542e+00 3.525503306573678219e-02 1.404215907805789776e+01 4.692642140732944256e+01
2.897246558310587083e+00 3.546230709627298111e-02 1.417348735051748321e+01 4.490141875603173816e+01
2.914699850830530625e+00 3.567261580566764151e-02 1.429966135580151310e+01 4.289516950248938798e+01
2.932153143350473723e+00 3.588596618461421112e-02 1.442076705056519792e+01 4.092884721618652577e+01
2.949606435870416821e+00 3.610230560163396607e-02 1.453691146828214897e+01 3.902157871055700156e+01
2.967059728390360362e+00 3.632159505636151781e-02 1.464820030662895256e+01 3.716962126659091581e+01
2.984513020910303460e+00 3.654380585463716524e-02 1.475473564745088417e+01 3.536958606729739074e+01
3.001966313430246558e+00 3.676890681669981592e-02 1.485659875229119820e+01 3.361467810728276362e+01
3.019419605950190100e+00 3.699686561487787462e-02 1.495395679217952889e+01 3.193313733660379938e+01
3.036872898470133197e+00 3.722764882334437392e-02 1.504720301002990013e+01 3.039854544087543431e+01
3.054326190990076295e+00 3.746122243132050944e-02 1.513669681177506909e+01 2.899815084605230098e+01
3.071779483510019837e+00 3.769755229082378395e-02 1.522275372365524149e+01 2.771598939134461048e+01
3.089232776029963379e+00 3.793660454319158770e-02 1.530565227887076496e+01 2.653847533294528205e+01
3.106686068549906921e+00 3.817834635264578946e-02 1.538563960108569972e+01 2.545393606164783762e+01
3.124139361069850018e+00 3.842274564640977413e-02 1.546293597328219427e+01 2.445237946136622398e+01
3.141592653589793116e+00 3.866977373634311599e-02 1.553773860541254237e+01 2.352493081559718746e+01
3.159045946109736214e+00 3.891939776818091612e-02 1.561022476465675446e+01 2.266458941870024546e+01
3.176499238629679756e+00 3.917156416526020729e-02 1.568055439326502309e+01 2.186666383037774608e+01
3.193952531149622853e+00 3.942624542032215074e-02 1.574887231072070648e+01 2.112307319755979051e+01
3.211405823669565951e+00 3.968341719140689589e-02 1.581531007763346253e+01 2.042863958510691447e+01
3.228859116189509493e+00 3.994304333486881076e-02 1.587998758137933208e+01 1.977994092936313564e+01
3.246312408709452590e+00 4.020509135980891019e-02 1.594301439369404072e+01 1.917277140615252407e+01
3.263765701229396576e+00 4.046952562813023457e-02 1.600449093576516901e+01 1.860388153520212029e+01
3.281218993749339674e+00 4.073630741580393233e-02 1.606450948361025510e+01 1.807035891500157732e+01
3.298672286269282772e+00 4.100540546340674525e-02 1.612315504190577187e+01 1.756890169477144781e+01
3.316125578789226314e+00 4.127679206717921323e-02 1.618050610226816488e+01 1.709681261465794577e+01
3.333578871309169411e+00 4.155043311135709488e-02 1.623663530563411328e+01 1.665227904290983929e+01
3.351032163829112509e+00 4.182628955963149653e-02 1.629161002572370620e+01 1.623356471410147606e+01
3.368485456349056051e+00 4.210432482356316758e-02 1.634549287971175247e+01 1.583867085321735857e+01
3.385938748868999149e+00 4.238450609068558639e-02 1.639834217953401563e+01 1.546571816408426869e+01
3.403392041388942246e+00 4.266680274632290298e-02 1.645021233188671417e+01 1.511309119059223605e+01
3.420845333908885788e+00 4.295118347514430279e-02 1.650115419348222190e+01 1.477947392170868035e+01
3.438298626428828886e+00 4.323761595028379617e-02 1.655121538733153841e+01 1.446368121393212824e+01
