# angles(rad), pulling distance(m),                                     elastic band force(n), cable force(n)
0.000000000000000000e+00 3.370050828728952627e-04 2.637145554139122550e-02 2.063629608915635086e-02
1.745329251994329547e-02 6.606579095791682106e-04 5.315857432385809322e-02 4.399668185231336154e-02
3.490658503988659095e-02 9.720108021901094093e-04 8.038541589734372883e-02 7.029454472390601893e-02
5.235987755982988295e-02 1.271702628194478846e-03 1.080762349885418250e-01 9.985989644849015134e-02
6.981317007977318190e-02 1.560013192444071163e-03 1.362556073083081021e-01 1.331757474440899425e-01
8.726646259971647390e-02 1.837282498512813906e-03 1.649495155348501552e-01 1.707021353310601286e-01
1.047197551196597659e-01 2.103909396628124602e-03 1.941859237751326628e-01 2.129304650857410386e-01
1.221730476396030718e-01 2.360190888167732794e-03 2.239952255930514613e-01 2.605393485640817852e-01
1.396263401595463638e-01 2.606704585666040890e-03 2.544106444117921750e-01 3.138976203049925751e-01
1.570796326794896558e-01 2.844221203007963380e-03 2.854666613952793197e-01 3.732563044946320407e-01
1.745329251994329478e-01 3.073440978468050273e-03 3.171968034170173367e-01 4.390851356983284659e-01
1.919862177193762398e-01 3.294989421190205880e-03 3.496279196994793170e-01 5.117988454375697049e-01
2.094395102393195318e-01 3.509426521512871901e-03 3.827753425746107108e-01 5.916894104332741655e-01
2.268928027592628516e-01 3.717255974776814860e-03 4.166509443332729323e-01 6.791290281979136534e-01
2.443460952792061436e-01 3.918932415439245476e-03 4.512679299472290850e-01 7.745840509537059715e-01
2.617993877991494078e-01 4.114867631914455141e-03 4.866387974335892874e-01 8.784963074732883292e-01
2.792526803190927276e-01 4.305435900300286396e-03 5.227750530657740979e-01 9.913052742582618704e-01
2.967059728390360474e-01 4.490978460180034340e-03 5.596890988826588309e-01 1.113512126422939730e+00
3.141592653589793116e-01 4.671807194222481890e-03 5.973942430232285217e-01 1.245644734572431078e+00
3.316125578789225758e-01 4.848208087192251367e-03 6.359036013055917591e-01 1.388215173033096939e+00
3.490658503988658956e-01 5.020444066519385261e-03 6.752300365029260121e-01 1.541744667842615213e+00
3.665191429188092154e-01 5.188757262476625075e-03 7.153863859596730768e-01 1.706776794761488691e+00
3.839724354387524796e-01 5.353371517968027841e-03 7.563855939278875118e-01 1.883871489564303614e+00
4.014257279586957439e-01 5.514493824306053622e-03 7.982409020840278702e-01 2.073618464067223055e+00
4.188790204786390636e-01 5.672316450406460556e-03 8.409655294308343576e-01 2.276602521718500860e+00
4.363323129985823834e-01 5.827017885884981131e-03 8.845719773692544141e-01 2.493386164105332536e+00
4.537856055185257032e-01 5.978764639571730773e-03 9.290722213323313605e-01 2.724535418658945218e+00
4.712388980384689674e-01 6.127711874734128976e-03 9.744785399296774786e-01 2.970681731828066496e+00
4.886921905584122872e-01 6.274004832680880536e-03 1.020803643367536040e+00 3.232475098764255872e+00
5.061454830783556069e-01 6.417779493318941444e-03 1.068060490309291177e+00 3.510574873978906218e+00
5.235987755982988157e-01 6.559163347030949782e-03 1.116262206378864086e+00 3.805650540596296150e+00
5.410520681182421354e-01 6.698276414644560410e-03 1.165421868501035130e+00 4.118358272741783566e+00
5.585053606381854552e-01 6.835231434515149328e-03 1.215552182626404409e+00 4.449344960733776055e+00
5.759586531581287749e-01 6.970134820672300308e-03 1.266665503029332118e+00 4.799247931720071136e+00
5.934119456780720947e-01 7.103087132676742105e-03 1.318774601833729632e+00 5.168782324401250072e+00
6.108652381980153034e-01 7.234183236054840538e-03 1.371893308443444592e+00 5.558761570575647681e+00
6.283185307179586232e-01 7.363513135577914696e-03 1.426036504223939572e+00 5.970017290901411755e+00
6.457718232379019430e-01 7.491162250312525042e-03 1.481217146334056212e+00 6.403061502553982542e+00
6.632251157578451517e-01 7.617211498632764886e-03 1.537440496280015445e+00 6.857641453269988752e+00
6.806784082777884715e-01 7.741737942632710007e-03 1.594703458027843634e+00 7.333176808310535755e+00
6.981317007977317912e-01 7.864815083901100304e-03 1.652994578003373016e+00 7.828822173824860897e+00
7.155849933176750000e-01 7.986512874439632981e-03 1.712294045092242145e+00 8.343464899739814200e+00
7.330382858376184307e-01 8.106898064261933851e-03 1.772573690639894783e+00 8.875685949126124186e+00
7.504915783575616395e-01 8.226034643579816300e-03 1.833799891673179250e+00 9.424192088209917273e+00
7.679448708775049592e-01 8.343983871432543442e-03 1.895943760663288291e+00 9.989152351415796716e+00
7.853981633974482790e-01 8.460804321531525951e-03 1.958978356253536557e+00 1.057035890136211087e+01
8.028514559173914877e-01 8.576552285962038211e-03 2.022877260135906408e+00 1.116733587905597602e+01
8.203047484373349185e-01 8.691281985048553496e-03 2.087614577051048137e+00 1.177956253239292295e+01
8.377580409572781273e-01 8.805045569149804602e-03 2.153164934788278639e+00 1.240649482500612066e+01
8.552113334772214470e-01 8.917893165377107495e-03 2.219503420901756119e+00 1.304755278701123444e+01
8.726646259971647668e-01 9.029873217273158559e-03 2.286604400519665958e+00 1.370185070247352499e+01
8.901179185171079755e-01 9.141032634893514822e-03 2.354440468609003467e+00 1.436819185994040460e+01
9.075712110370514063e-01 9.251416795469379756e-03 2.422982941658957223e+00 1.504538713822218909e+01
9.250245035569946150e-01 9.361069557398895777e-03 2.492204606270459699e+00 1.573280493467072105e+01
9.424777960769379348e-01 9.470033476447635781e-03 2.562079939909813309e+00 1.642985973474524997e+01
9.599310885968812546e-01 9.578349975754281084e-03 2.632581147059025461e+00 1.713498404896580851e+01
9.773843811168245743e-01 9.686059350415292604e-03 2.703679304735875810e+00 1.784678614287135545e+01
9.948376736367677831e-01 9.793200767632716242e-03 2.775351022565152537e+00 1.856557254257958078e+01
1.012290966156711214e+00 9.899812367388415718e-03 2.847571975250664522e+00 1.929005486874073583e+01
1.029744258676654312e+00 1.000593153821872569e-02 2.920312749159748034e+00 2.001766577785666357e+01
1.047197551196597631e+00 1.011159496401158389e-02 2.993544411197130550e+00 2.074721986058320766e+01
1.064650843716540951e+00 1.021683862400652940e-02 3.067241492670281122e+00 2.147841933604407316e+01
1.082104136236484271e+00 1.032169779317036740e-02 3.141379072364380853e+00 2.221019327007105559e+01
1.099557428756427591e+00 1.042620705333556323e-02 3.215930811881962725e+00 2.294086053379525225e+01
1.117010721276370910e+00 1.053040030593358455e-02 3.290870042141212704e+00 2.366902478730870740e+01
1.134464013796314230e+00 1.063431077269133898e-02 3.366169725057643891e+00 2.439326093401641060e+01
1.151917306316257550e+00 1.073797099563117072e-02 3.441802697200312622e+00 2.511221374364709646e+01
1.169370598836200648e+00 1.084141281040601479e-02 3.517741809077053361e+00 2.582458451395555699e+01
1.186823891356144189e+00 1.094466695450640320e-02 3.593960053591937154e+00 2.652923313906671865e+01
1.204277183876087287e+00 1.104776276929404603e-02 3.670430663729039811e+00 2.722516650161166041e+01
1.221730476396030607e+00 1.115072819254424828e-02 3.747127186172743762e+00 2.791146923519755774e+01
1.239183768915973927e+00 1.125358975844590464e-02 3.824023535923584571e+00 2.858730067894974880e+01
1.256637061435917246e+00 1.135637275036521961e-02 3.901094020528717010e+00 2.925184420476389846e+01
1.274090353955860566e+00 1.145910298152469364e-02 3.978313389034508596e+00 2.990384078300117210e+01
1.291543646475803886e+00 1.156180794611198423e-02 4.055654642967738255e+00 3.054082311090765245e+01
1.308996938995747206e+00 1.166451683856792147e-02 4.133085267267605722e+00 3.115868206508107008e+01
1.326450231515690303e+00 1.176726055358649943e-02 4.210581009310993217e+00 3.175883796798098047e+01
1.343903524035633845e+00 1.187007157075896727e-02 4.288117242231822779e+00 3.233938019772359951e+01
1.361356816555576943e+00 1.197298279589814260e-02 4.365670673509077560e+00 3.289949566718636476e+01
1.378810109075520263e+00 1.207602689186464476e-02 4.443208606356052748e+00 3.343395924951727238e+01
1.396263401595463582e+00 1.217923627045923093e-02 4.520703782459160713e+00 3.394388576912080424e+01
1.413716694115406902e+00 1.228264309242280139e-02 4.598132757719054275e+00 3.442990518213166951e+01
1.431169986635350000e+00 1.238627933461633468e-02 4.675473030371943395e+00 3.489149657461808829e+01
1.448623279155293542e+00 1.249017732019680818e-02 4.752689291997753251e+00 3.532165688745108412e+01
1.466076571675236861e+00 1.259436997009132260e-02 4.829757022344363548e+00 3.572405656392469098e+01
1.483529864195180181e+00 1.269889080451220252e-02 4.906653161702792865e+00 3.609832311388468895e+01
1.500983156715123279e+00 1.280377394295699467e-02 4.983352555077995127e+00 3.644247527455859625e+01
1.518436449235066599e+00 1.290905412206166773e-02 5.059820394516338027e+00 3.675084301766310801e+01
1.535889741755009918e+00 1.301476677799543770e-02 5.136034179128440513e+00 3.702835760116832375e+01
1.553343034274953460e+00 1.312094807021450468e-02 5.211970521626986930e+00 3.727379563304344146e+01
1.570796326794896558e+00 1.322763488146427857e-02 5.287601946508477369e+00 3.748437737859772056e+01
1.588249619314839878e+00 1.333486481934829590e-02 5.362901513283127919e+00 3.765964697677306816e+01
1.605702911834782975e+00 1.344267634993924661e-02 5.437870604934652796e+00 3.781341546084109950e+01
1.623156204354726295e+00 1.355110903147500705e-02 5.512513088323232502e+00 3.794683123176290707e+01
1.640609496874669837e+00 1.366020353792764958e-02 5.586834045227285550e+00 3.806047305284551641e+01
1.658062789394613157e+00 1.377000165900344429e-02 5.660835000254274441e+00 3.815249224345546963e+01
1.675516081914556255e+00 1.388054634028349985e-02 5.734519642601026312e+00 3.822400354341761641e+01
1.692969374434499574e+00 1.399188194648111165e-02 5.807892611573295838e+00 3.827547528926820775e+01
1.710422666954442894e+00 1.410405436752255361e-02 5.880958376364173290e+00 3.830680638635943325e+01
1.727875959474386436e+00 1.421711101883929920e-02 5.953721293661503822e+00 3.831796935930309900e+01
1.745329251994329534e+00 1.433110086404541968e-02 6.026185587843022162e+00 3.830896378885861964e+01
1.762782544514272853e+00 1.444607471076764064e-02 6.098355068069571061e+00 3.827958514451142946e+01
1.780235837034215951e+00 1.456208541799966505e-02 6.170231975646593980e+00 3.822898799809340176e+01
1.797689129554159271e+00 1.467918790038096402e-02 6.241820615604247280e+00 3.815832419980441870e+01
1.815142422074102813e+00 1.479743916615086988e-02 6.313125108757916770e+00 3.806759979817853434e+01
1.832595714594046132e+00 1.491689870499832843e-02 6.384149570325909906e+00 3.795685050993972709e+01
1.850049007113989230e+00 1.503762871507692382e-02 6.454898043478348058e+00 3.782606997493433454e+01
1.867502299633932550e+00 1.515969410588547013e-02 6.525374535951462995e+00 3.767533994042119616e+01
1.884955592153875870e+00 1.528316265544696698e-02 6.595583023463667871e+00 3.750476619213181806e+01
1.902408884673818967e+00 1.540810555455278744e-02 6.665527462601601449e+00 3.731437186640818737e+01
1.919862177193762509e+00 1.553459752447791838e-02 6.735211800958706974e+00 3.710423502160387699e+01
1.937315469713705829e+00 1.566271686779909314e-02 6.804639987761011533e+00 3.687451121322010295e+01
1.954768762233649149e+00 1.579254605296933137e-02 6.873815984419485936e+00 3.662528351738998111e+01
1.972222054753592246e+00 1.592417208854596256e-02 6.942743773875438507e+00 3.635663559993047755e+01
1.989675347273535566e+00 1.605768656547703829e-02 7.011427373387920881e+00 3.606875305164365386e+01
2.007128639793478886e+00 1.619318630050754770e-02 7.079870835010432017e+00 3.576175759157480627e+01
2.024581932313422428e+00 1.633077388948661959e-02 7.148078281651510046e+00 3.543576652514460790e+01
2.042035224833365525e+00 1.647055781248439252e-02 7.216053852775283772e+00 3.509097265142047206e+01
2.059488517353308623e+00 1.661265333696077331e-02 7.283801134962192059e+00 3.472718318905486967e+01
2.076941809873252165e+00 1.675718305260017957e-02 7.351322912781878216e+00 3.434410634530353690e+01
2.094395102393195263e+00 1.690427726039790343e-02 7.418623238776618223e+00 3.394258481533145044e+01
2.111848394913138804e+00 1.705407519340295872e-02 7.485706526327029486e+00 3.352287934484636622e+01
2.129301687433081902e+00 1.720672537348161280e-02 7.552577007027518441e+00 3.308508740226581324e+01
2.146754979953025444e+00 1.736238691750568996e-02 7.619239498502740737e+00 3.262960619470972290e+01
2.164208272472968542e+00 1.752123041507498702e-02 7.685698262264215153e+00 3.215630560709345076e+01
2.181661564992911639e+00 1.768343908142630538e-02 7.751954744355164628e+00 3.166398332730257437e+01
2.199114857512855181e+00 1.784921006700279991e-02 7.818013122179606533e+00 3.115414092914802424e+01
2.216568150032798723e+00 1.801875620809864978e-02 7.883879019035219926e+00 3.062757777520547720e+01
2.234021442552741821e+00 1.819230804105168020e-02 7.949556621445827531e+00 3.008368221989580249e+01
2.251474735072684918e+00 1.837011433577708311e-02 8.015048293042221772e+00 2.952195317088334647e+01
2.268928027592628460e+00 1.855243059020985144e-02 8.080358032123138301e+00 2.894564044222175525e+01
2.286381320112572002e+00 1.873944727914796105e-02 8.145490839211900536e+00 2.836852082485756199e+01
2.303834612632515100e+00 1.893129226148890926e-02 8.210450952093614418e+00 2.780118688274564320e+01
2.321287905152458197e+00 1.912808644824461404e-02 8.275240849117682984e+00 2.724430082527031871e+01
2.338741197672401295e+00 1.932996506569738260e-02 8.339864861675067687e+00 2.669700923991537778e+01
2.356194490192344837e+00 1.953706351428241561e-02 8.404328078444557093e+00 2.616002323649621530e+01
2.373647782712288379e+00 1.974948189304517876e-02 8.468633563282148558e+00 2.563712190869147989e+01
2.391101075232231477e+00 1.996728036294407801e-02 8.532784679604038303e+00 2.513275978408031008e+01
2.408554367752174574e+00 2.019046354016312134e-02 8.596785745333171747e+00 2.465255026844356934e+01
2.426007660272118116e+00 2.041896347460613742e-02 8.660641413011768819e+00 2.420267827650930670e+01
2.443460952792061214e+00 2.065265947227612128e-02 8.724355910724971963e+00 2.378594243227187377e+01
2.460914245312004311e+00 2.089149155364676200e-02 8.787932680442171574e+00 2.339335524391609056e+01
2.478367537831947853e+00 2.113542643714410793e-02 8.851375210284873063e+00 2.302063681406854556e+01
2.495820830351891395e+00 2.138440138852064354e-02 8.914687292189087842e+00 2.266924479241913915e+01
2.513274122871834493e+00 2.163832090155914240e-02 8.977872934834376650e+00 2.234064897916057646e+01
2.530727415391777591e+00 2.189711158258239587e-02 9.040936280501396638e+00 2.203138411152978193e+01
2.548180707911721132e+00 2.216072339641483868e-02 9.103881461937101349e+00 2.173823176054699857e+01
2.565634000431664674e+00 2.242910235681024045e-02 9.166712554831827120e+00 2.146049627822323203e+01
2.583087292951607772e+00 2.270217032185027975e-02 9.229433518181943796e+00 2.119907991958553239e+01
2.600540585471550870e+00 2.297984012038302437e-02 9.292048181688571162e+00 2.095361012462396388e+01
2.617993877991494411e+00 2.326205761107729558e-02 9.354560231186937358e+00 2.072064104775468962e+01
2.635447170511437509e+00 2.354877228999513808e-02 9.416973267271057324e+00 2.049919085244333061e+01
2.652900463031380607e+00 2.383990426436768256e-02 9.479291156509466632e+00 2.029077766614782519e+01
2.670353755551324149e+00 2.413536975639605023e-02 9.541518147198630118e+00 2.009506954027650139e+01
2.687807048071267690e+00 2.443512399534591290e-02 9.603658592446222997e+00 1.990883008130849419e+01
2.705260340591210788e+00 2.473911226044598136e-02 9.665716636108744098e+00 1.973219146586904671e+01
2.722713633111153886e+00 2.504722691243890798e-02 9.727696199910475627e+00 1.956798754510559135e+01
2.740166925631096984e+00 2.535941842788212372e-02 9.789601013403904872e+00 1.941191207741492875e+01
2.757620218151040525e+00 2.567563396705934559e-02 9.851434627385135201e+00 1.926375305578079278e+01
2.775073510670984067e+00 2.599578245532852688e-02 9.913200499734580617e+00 1.912542145525455695e+01
2.792526803190927165e+00 2.631981362543571804e-02 9.974902549306653654e+00 1.899421995020783527e+01
2.809980095710870263e+00 2.664766729159563988e-02 1.003654537598737484e+01 1.887064538065588337e+01
2.827433388230813804e+00 2.697925019711240949e-02 1.009813422736489308e+01 1.875647018503935115e+01
2.844886680750756902e+00 2.731450191127880039e-02 1.015967394377817890e+01 1.864937379682574203e+01
2.862339973270700000e+00 2.765337378075825858e-02 1.022116772292660514e+01 1.854796125621679792e+01
2.879793265790643542e+00 2.799579604615586373e-02 1.028261704961139422e+01 1.845265212302889424e+01
2.897246558310587083e+00 2.834169235898468739e-02 1.034402169977109054e+01 1.836304725321216580e+01
2.914699850830530625e+00 2.869098834032896006e-02 1.040538002731899425e+01 1.827838710080621354e+01
2.932153143350473723e+00 2.904361719991662913e-02 1.046668943655335049e+01 1.819778865362607689e+01
2.949606435870416821e+00 2.939951675535208697e-02 1.052794642622872345e+01 1.812057069712539459e+01
2.967059728390360362e+00 2.975862183451382856e-02 1.058914658955600352e+01 1.804645877719393354e+01
2.984513020910303460e+00 3.012086600709989667e-02 1.065028461420240191e+01 1.797509559879944874e+01
3.001966313430246558e+00 3.048618572533156809e-02 1.071135428229145425e+01 1.790592782590924514e+01
3.019419605950190100e+00 3.085451722278769252e-02 1.077234847040301702e+01 1.783856807101716413e+01
3.036872898470133197e+00 3.122578937190748083e-02 1.083325914957327285e+01 1.777297796218481452e+01
3.054326190990076295e+00 3.159992510952899791e-02 1.089407793297827354e+01 1.770920282609520768e+01
3.071779483510019837e+00 3.197685220355601238e-02 1.095479787024608065e+01 1.764730235643828138e+01
3.089232776029963379e+00 3.235650629730558309e-02 1.101541240945203448e+01 1.758690761814641590e+01
3.106686068549906921e+00 3.273882635679350311e-02 1.107591500069669799e+01 1.752776348814554908e+01
3.124139361069850018e+00 3.312374834356265202e-02 1.113629909610585678e+01 1.746991261186347089e+01
3.141592653589793116e+00 3.351120478276379405e-02 1.119655814983051378e+01 1.741341556932078660e+01
3.159045946109736214e+00 3.390112651517856318e-02 1.125668561804688927e+01 1.735825296346610003e+01
3.176499238629679756e+00 3.429344522557298963e-02 1.131667495895642617e+01 1.730429505624993780e+01
3.193952531149622853e+00 3.468809363968419768e-02 1.137651963278578826e+01 1.725140865625078490e+01
3.211405823669565951e+00 3.508500550069917207e-02 1.143621310178685135e+01 1.719946666585809325e+01
3.228859116189509493e+00 3.548411494530991084e-02 1.149574882910635587e+01 1.714837313085155301e+01
3.246312408709452590e+00 3.588535582987482236e-02 1.155512027247371876e+01 1.709806241714765562e+01
3.263765701229396576e+00 3.628866169690023180e-02 1.161432088201094714e+01 1.704847193638024550e+01
3.281218993749339674e+00 3.669396577504036028e-02 1.167334410022924729e+01 1.699954116738303256e+01
3.298672286269282772e+00 3.710120097909733877e-02 1.173218331103975309e+01 1.695119675874480691e+01
3.316125578789226314e+00 3.751029991002120118e-02 1.179083165318884596e+01 1.690331303132339968e+01
3.333578871309169411e+00 3.792119485490989123e-02 1.184928197761600721e+01 1.685575314167419236e+01
3.351032163829112509e+00 3.833381778700924863e-02 1.190752705249308541e+01 1.680844060810188623e+01
3.368485456349056051e+00 3.874810036571301602e-02 1.196556028096421365e+01 1.676150843086274023e+01
3.385938748868999149e+00 3.916397381343734302e-02 1.202337582555229112e+01 1.671513353269421032e+01
3.403392041388942246e+00 3.958136868731101932e-02 1.208096789593770026e+01 1.666929799423649428e+01
3.420845333908885788e+00 4.000021581281906768e-02 1.213833005828740852e+01 1.662374687693635167e+01
3.438298626428828886e+00 4.042044654799501618e-02 1.219545542869139965e+01 1.657827118041908321e+01
