# angles(rad), pulling distance(m),                                     elastic band force(n), cable force(n)
0.000000000000000000e+00 3.436730102986636833e-04 2.518146225137040881e-02 1.845085363456772098e-02
1.745329251994329547e-02 6.753988082034220611e-04 5.081608094367238981e-02 3.926890421715702878e-02
3.490658503988659095e-02 9.958402321043713194e-04 7.692872574980695599e-02 6.268891413721174033e-02
5.235987755982988295e-02 1.305392155289558176e-03 1.035457713047339690e-01 8.903457886738300187e-02
6.981317007977318190e-02 1.604239375744927068e-03 1.306955513808025215e-01 1.187347659283060075e-01
8.726646259971647390e-02 1.892733575360678547e-03 1.584083850590081166e-01 1.521675386964607413e-01
1.047197551196597659e-01 2.171196729148585497e-03 1.867167321875652375e-01 1.898147743274238852e-01
1.221730476396030718e-01 2.439939624403453765e-03 2.156467534183770518e-01 2.321425148312372400e-01
1.396263401595463638e-01 2.699191711836683005e-03 2.452097706524116461e-01 2.796174467685985099e-01
1.570796326794896558e-01 2.949264152620387301e-03 2.754186139596166427e-01 3.327067039822262373e-01
1.745329251994329478e-01 3.190528842090002964e-03 3.062858131032351605e-01 3.918594639234727062e-01
1.919862177193762398e-01 3.423581797500323352e-03 3.378240177246397136e-01 4.571648953460499265e-01
2.094395102393195318e-01 3.649032605803839788e-03 3.700459434213443366e-01 5.288778063388985817e-01
2.268928027592628516e-01 3.867424760778487031e-03 4.029626336508341788e-01 6.073568067261256864e-01
2.443460952792061436e-01 4.079249786730660722e-03 4.365840490776570770e-01 6.929574830350079262e-01
2.617993877991494078e-01 4.284951840739256376e-03 4.709228134342131611e-01 7.861325254422663056e-01
2.792526803190927276e-01 4.484934147109349324e-03 5.059913167126658395e-01 8.872964049213665216e-01
2.967059728390360474e-01 4.679563868936665108e-03 5.418019468785150172e-01 9.968811012337651656e-01
3.141592653589793116e-01 4.869176353909035991e-03 5.783669707113757719e-01 1.115327509751401047e+00
3.316125578789225758e-01 5.054078662090443277e-03 6.156985467494777708e-01 1.243088706711895419e+00
3.490658503988658956e-01 5.234552743042618708e-03 6.538087099272397174e-01 1.380627982196068304e+00
3.665191429188092154e-01 5.410858259938018319e-03 6.927093745856286455e-01 1.528418143742219515e+00
3.839724354387524796e-01 5.583234669522196651e-03 7.324123474549120161e-01 1.686944729286180777e+00
4.014257279586957439e-01 5.751903618472871058e-03 7.729293558277378073e-01 1.856701270536379678e+00
4.188790204786390636e-01 5.917070411101867794e-03 8.142720913559849949e-01 2.038196370173577243e+00
4.363323129985823834e-01 6.078925889553597230e-03 8.564522769253003487e-01 2.231948916251571546e+00
4.537856055185257032e-01 6.237647542537721156e-03 8.994817342971722640e-01 2.438495959123415435e+00
4.712388980384689674e-01 6.393401049643761269e-03 9.433725556718550731e-01 2.658392552443897827e+00
4.886921905584122872e-01 6.546341008425595950e-03 9.881369673759471395e-01 2.892204913612386630e+00
5.061454830783556069e-01 6.696612342673586779e-03 1.033788330226755869e+00 3.140575440438308163e+00
5.235987755982988157e-01 6.844350706091993815e-03 1.080339253362014196e+00 3.404044039721058290e+00
5.410520681182421354e-01 6.989683673362145563e-03 1.127799182007586776e+00 3.682940609415895850e+00
5.585053606381854552e-01 7.132731206543787075e-03 1.176179449580501801e+00 3.977969785205039965e+00
5.759586531581287749e-01 7.273606233779544503e-03 1.225493401290834727e+00 4.289896058827418202e+00
5.934119456780720947e-01 7.412415518667884139e-03 1.275754403789208347e+00 4.619337627719936279e+00
6.108652381980153034e-01 7.549259781694659527e-03 1.326973971344021619e+00 4.966743323060263116e+00
6.283185307179586232e-01 7.684234393285899363e-03 1.379164268265234528e+00 5.332780129190007656e+00
6.457718232379019430e-01 7.817429883088158893e-03 1.432338014186151032e+00 5.718119866691796283e+00
6.632251157578451517e-01 7.948932001133045613e-03 1.486504567018814837e+00 6.123006181386076108e+00
6.806784082777884715e-01 8.078822305929444364e-03 1.541668316391388016e+00 6.547386639392124508e+00
6.981317007977317912e-01 8.207178550597871852e-03 1.597825200515368138e+00 6.990613107099394874e+00
7.155849933176750000e-01 8.334074703421009284e-03 1.654961777854786487e+00 7.451672057069617772e+00
7.330382858376184307e-01 8.459581335829007703e-03 1.713055227117735946e+00 7.929245252767415764e+00
7.504915783575616395e-01 8.583766054093824524e-03 1.772076428425901629e+00 8.422137689481933975e+00
7.679448708775049592e-01 8.706693521908483169e-03 1.832000800232171711e+00 8.930591270945102522e+00
7.853981633974482790e-01 8.828425568322081224e-03 1.892805429448150889e+00 9.454481026676466726e+00
8.028514559173914877e-01 8.949021611937250584e-03 1.954467583683654475e+00 9.993419185290285611e+00
8.203047484373349185e-01 9.068538765106702940e-03 2.016964711246710173e+00 1.054697986909426355e+01
8.377580409572781273e-01 9.187031837038417761e-03 2.080274441143556530e+00 1.111470998540810662e+01
8.552113334772214470e-01 9.304553578971933026e-03 2.144374583078644481e+00 1.169610940715098835e+01
8.726646259971647668e-01 9.421155102580324944e-03 2.209243018005267345e+00 1.229058870893315536e+01
8.901179185171079755e-01 9.536885920854012988e-03 2.274856865178864762e+00 1.289735205541099994e+01
9.075712110370514063e-01 9.651793947552644512e-03 2.341192099205891441e+00 1.351546365079977186e+01
9.250245035569946150e-01 9.765925465650984738e-03 2.408223943243160470e+00 1.414400635862934763e+01
9.424777960769379348e-01 9.879325079181352012e-03 2.475928900973842772e+00 1.478247203547288890e+01
9.599310885968812546e-01 9.992035709177619213e-03 2.544285292770110285e+00 1.543050219130483214e+01
9.773843811168245743e-01 1.010409859482098473e-02 2.613272021967699921e+00 1.608749304143917058e+01
9.948376736367677831e-01 1.021555384188017196e-02 2.682867443155461107e+00 1.675248986691343589e+01
1.012290966156711214e+00 1.032644184844810561e-02 2.753046378685266138e+00 1.742351317335224437e+01
1.029744258676654312e+00 1.043680353364525443e-02 2.823782019881600380e+00 1.809885662929015027e+01
1.047197551196597631e+00 1.054668033761963289e-02 2.895055518578669940e+00 1.877928081885924172e+01
1.064650843716540951e+00 1.065611369675340675e-02 2.966846422963981489e+00 1.946322305765511729e+01
1.082104136236484271e+00 1.076514040785281866e-02 3.039126752960656486e+00 2.014818959414651900e+01
1.099557428756427591e+00 1.087379021199417345e-02 3.111873462156440784e+00 2.083561545228836565e+01
1.117010721276370910e+00 1.098208577366743301e-02 3.185065733744965488e+00 2.152647741141248616e+01
1.134464013796314230e+00 1.109004269431771751e-02 3.258682669535239107e+00 2.222129265998280445e+01
1.151917306316257550e+00 1.119767315010917162e-02 3.332701714155475337e+00 2.291947897758507935e+01
1.169370598836200648e+00 1.130499442180618944e-02 3.407096556283793820e+00 2.361790970351622576e+01
1.186823891356144189e+00 1.141203011586124950e-02 3.481843253005555638e+00 2.431490578565681204e+01
1.204277183876087287e+00 1.151881016441491309e-02 3.556919483128288650e+00 2.500842706670704274e+01
1.221730476396030607e+00 1.162537058741102899e-02 3.632302798881291928e+00 2.569575280388736971e+01
1.239183768915973927e+00 1.173174931663716752e-02 3.707970507400897731e+00 2.637497492161908852e+01
1.256637061435917246e+00 1.183798263334932821e-02 3.783899832636960170e+00 2.704508999106539235e+01
1.274090353955860566e+00 1.194410505407635971e-02 3.860067952125799451e+00 2.770518378664009163e+01
1.291543646475803886e+00 1.205014933061994940e-02 3.936452059374889956e+00 2.835441818122053093e+01
1.308996938995747206e+00 1.215614667997759989e-02 4.013029393809367740e+00 2.899196025631085405e+01
1.326450231515690303e+00 1.226212821094651260e-02 4.089777298860337140e+00 2.961665461358708740e+01
1.343903524035633845e+00 1.236812547051610763e-02 4.166673155425081987e+00 3.022718725113598026e+01
1.361356816555576943e+00 1.247417044497853462e-02 4.243694603063157267e+00 3.082234715211498965e+01
1.378810109075520263e+00 1.258029555983428138e-02 4.320816560245529736e+00 3.139971440361596677e+01
1.396263401595463582e+00 1.268653361109998122e-02 4.398014429520910262e+00 3.195816743214367861e+01
1.413716694115406902e+00 1.279291757543109948e-02 4.475265774243410988e+00 3.249740703165001321e+01
1.431169986635350000e+00 1.289948057758900403e-02 4.552548194355716227e+00 3.301633165480603793e+01
1.448623279155293542e+00 1.300625589044096531e-02 4.629839445628480377e+00 3.351393448415932141e+01
1.466076571675236861e+00 1.311327694034270484e-02 4.707117404168193353e+00 3.398924080214636234e+01
1.483529864195180181e+00 1.322057748067115811e-02 4.784359893185333057e+00 3.444119343408498679e+01
1.500983156715123279e+00 1.332819179852401739e-02 4.861545075557372364e+00 3.486889577090006043e+01
1.518436449235066599e+00 1.343615472679929833e-02 4.938646616449711146e+00 3.526926048912902445e+01
1.535889741755009918e+00 1.354450164419534162e-02 5.015640014945962122e+00 3.564210036293830797e+01
1.553343034274953460e+00 1.365326849988921822e-02 5.092503364554573864e+00 3.598769717076823582e+01
1.570796326794896558e+00 1.376249197373488088e-02 5.169214328198963315e+00 3.630496251756743220e+01
1.588249619314839878e+00 1.387220954021608187e-02 5.245754174697953687e+00 3.659479809658485294e+01
1.605702911834782975e+00 1.398245946861341633e-02 5.322116826207015983e+00 3.686269536842495853e+01
1.623156204354726295e+00 1.409328082682921590e-02 5.398305444038769885e+00 3.711283068865247969e+01
1.640609496874669837e+00 1.420471362851970926e-02 5.474324175779756274e+00 3.734548307756471530e+01
1.658062789394613157e+00 1.431679902332690969e-02 5.550175064930468416e+00 3.755937286398708608e+01
1.675516081914556255e+00 1.442957930950220999e-02 5.625861887301299546e+00 3.775514531725472978e+01
1.692969374434499574e+00 1.454309793417903410e-02 5.701388627262106823e+00 3.793274429571588513e+01
1.710422666954442894e+00 1.465739959916554334e-02 5.776759253054526866e+00 3.809200504701843215e+01
1.727875959474386436e+00 1.477253052656274553e-02 5.851977688807147970e+00 3.823269887271050749e+01
1.745329251994329534e+00 1.488853849978676210e-02 5.927047827353237430e+00 3.835463108294275969e+01
1.762782544514272853e+00 1.500547286380769438e-02 6.001973529577076860e+00 3.845764974203461151e+01
1.780235837034215951e+00 1.512338465107713331e-02 6.076758627839408788e+00 3.854160823302474626e+01
1.797689129554159271e+00 1.524232691385613535e-02 6.151406928509129735e+00 3.860630050349225684e+01
1.815142422074102813e+00 1.536235477839885226e-02 6.225922214909742181e+00 3.865155634647060623e+01
1.832595714594046132e+00 1.548352545021120137e-02 6.300308250353809036e+00 3.867725958845440459e+01
1.850049007113989230e+00 1.560589846282683414e-02 6.374568781344853718e+00 3.868327275953103594e+01
1.867502299633932550e+00 1.572953602926317751e-02 6.448707540928171333e+00 3.866941025939298981e+01
1.884955592153875870e+00 1.585450306858781841e-02 6.522728252194650800e+00 3.863554639965129667e+01
1.902408884673818967e+00 1.598086728532705642e-02 6.596634631936075799e+00 3.858160139823078794e+01
1.919862177193762509e+00 1.610869967327634156e-02 6.670430394451160261e+00 3.850741624709432642e+01
1.937315469713705829e+00 1.623807471246122014e-02 6.744119255500791610e+00 3.841285535848776078e+01
1.954768762233649149e+00 1.636907040086800838e-02 6.817704936411060679e+00 3.829786049394208192e+01
1.972222054753592246e+00 1.650176876085064290e-02 6.891191168319757310e+00 3.816231582580061144e+01
1.989675347273535566e+00 1.663625624960095653e-02 6.964581696571289449e+00 3.800608774183287153e+01
2.007128639793478886e+00 1.677262380480042808e-02 7.037880285224344945e+00 3.782913694254622783e+01
2.024581932313422428e+00 1.691096744705334470e-02 7.111090721797299175e+00 3.763136836464824597e+01
2.042035224833365525e+00 1.705138879839697419e-02 7.184216821741448378e+00 3.741266924867448296e+01
2.059488517353308623e+00 1.719399520707226570e-02 7.257262434543767959e+00 3.717302656471362354e+01
2.076941809873252165e+00 1.733890063193154960e-02 7.330231444590820544e+00 3.691233316123098263e+01
2.094395102393195263e+00 1.748622607798253764e-02 7.403127789948134030e+00 3.663053291646667731e+01
2.111848394913138804e+00 1.763610007562186471e-02 7.475955427633030226e+00 3.632759396612042480e+01
2.129301687433081902e+00 1.778865975018787543e-02 7.548718436153692757e+00 3.600345015499306811e+01
2.146754979953025444e+00 1.794405117251428664e-02 7.621420555115856921e+00 3.565791570494778284e+01
2.164208272472968542e+00 1.810243073064502980e-02 7.694063896222560928e+00 3.529006613648188306e+01
2.181661564992911639e+00 1.826396578800171949e-02 7.766652355002205965e+00 3.490074127265376092e+01
2.199114857512855181e+00 1.842883584845993183e-02 7.839190225571496029e+00 3.449008051371954053e+01
2.216568150032798723e+00 1.859723353718206046e-02 7.911681568948673693e+00 3.405797488419955243e+01
2.234021442552741821e+00 1.876936713642398877e-02 7.984130963838086181e+00 3.360444791692879818e+01
2.251474735072684918e+00 1.894546202983421815e-02 8.056542450829464741e+00 3.312908214292629339e+01
2.268928027592628460e+00 1.912575858735934137e-02 8.128917889771225092e+00 3.263146054864257906e+01
2.286381320112572002e+00 1.931051805650305445e-02 8.201260985915917345e+00 3.211227087637541899e+01
2.303834612632515100e+00 1.950004152275090774e-02 8.273576294772540862e+00 3.156897860462624905e+01
2.321287905152458197e+00 1.969461852778750174e-02 8.345868539260061780e+00 3.100785567068666282e+01
2.338741197672401295e+00 1.989447024146480045e-02 8.418141558078099607e+00 3.044279641365899636e+01
2.356194490192344837e+00 2.009974735119600744e-02 8.490397013874359189e+00 2.988533436251087494e+01
2.373647782712288379e+00 2.031060794064495911e-02 8.562639316506958309e+00 2.933619707947534394e+01
2.391101075232231477e+00 2.052715591433044648e-02 8.634873596936156304e+00 2.880349653041168168e+01
2.408554367752174574e+00 2.074932103142081846e-02 8.707103170179355089e+00 2.830824003350350182e+01
2.426007660272118116e+00 2.097702098756262443e-02 8.779330510722518355e+00 2.784838896253604190e+01
2.443460952792061214e+00 2.121018583533538712e-02 8.851560669979665619e+00 2.742049854315999724e+01
2.460914245312004311e+00 2.144875763205555258e-02 8.923798454326636431e+00 2.702060499865479315e+01
2.478367537831947853e+00 2.169266010911860901e-02 8.996044977707429169e+00 2.664724777061508121e+01
2.495820830351891395e+00 2.194176771635853243e-02 9.068304877909771022e+00 2.630488939067403820e+01
2.513274122871834493e+00 2.219599957849702210e-02 9.140583657798085682e+00 2.598691716669407015e+01
2.530727415391777591e+00 2.245528912704265745e-02 9.212883296715268955e+00 2.568896970490233045e+01
2.548180707911721132e+00 2.271957351890608462e-02 9.285206954654695366e+00 2.540975374861566394e+01
2.565634000431664674e+00 2.298877542774360738e-02 9.357559531397640740e+00 2.515002761480278082e+01
2.583087292951607772e+00 2.326276702012487763e-02 9.429945937338105821e+00 2.491316936714366648e+01
2.600540585471550870e+00 2.354147111357214259e-02 9.502369732471690256e+00 2.469277254868559268e+01
2.617993877991494411e+00 2.382483786043208124e-02 9.574833042213500178e+00 2.448502162489026546e+01
2.635447170511437509e+00 2.411278948678171816e-02 9.647339217988925242e+00 2.429198549673535368e+01
2.652900463031380607e+00 2.440521101836619355e-02 9.719892756211480744e+00 2.411630247559894968e+01
2.670353755551324149e+00 2.470201874289964031e-02 9.792497729853923971e+00 2.395436441849090770e+01
2.687807048071267690e+00 2.500316041884163842e-02 9.865157889423841198e+00 2.380288095912770174e+01
2.705260340591210788e+00 2.530856194249882576e-02 9.937877055976116480e+00 2.366308223205706085e+01
2.722713633111153886e+00 2.561809419331730758e-02 1.001065904364367931e+01 2.353860255698880266e+01
2.740166925631096984e+00 2.593169588854532526e-02 1.008350755192370052e+01 2.342361328288962952e+01
2.757620218151040525e+00 2.624930451170440562e-02 1.015642644365625102e+01 2.331786060681534423e+01
2.775073510670984067e+00 2.657080585701101019e-02 1.022942007704807033e+01 2.322486514645488853e+01
2.792526803190927165e+00 2.689613800383695158e-02 1.030249269116414723e+01 2.314035302689954321e+01
2.809980095710870263e+00 2.722523157335600755e-02 1.037564727258407871e+01 2.306414355941363681e+01
2.827433388230813804e+00 2.755797236935839459e-02 1.044888601736339950e+01 2.299878179796190381e+01
2.844886680750756902e+00 2.789427931725045259e-02 1.052221279505958407e+01 2.294213555001884330e+01
2.862339973270700000e+00 2.823409177308448814e-02 1.059563366145764363e+01 2.289323390313326456e+01
2.879793265790643542e+00 2.857733512383468441e-02 1.066915321421040375e+01 2.285233991700187417e+01
2.897246558310587083e+00 2.892392141836538574e-02 1.074277072779605469e+01 2.281844615557953659e+01
2.914699850830530625e+00 2.927375505732389763e-02 1.081648021180900798e+01 2.279018043039908648e+01
2.932153143350473723e+00 2.962675096430584035e-02 1.089027279916351176e+01 2.276574291519392190e+01
2.949606435870416821e+00 2.998283412810660506e-02 1.096413809476160850e+01 2.274382458028967235e+01
2.967059728390360362e+00 3.034192427047398624e-02 1.103806419601230537e+01 2.272412843155253981e+01
2.984513020910303460e+00 3.070393516142220711e-02 1.111203822258758933e+01 2.270656025375873810e+01
3.001966313430246558e+00 3.106878151030199528e-02 1.118604729096365880e+01 2.269089279245180890e+01
3.019419605950190100e+00 3.143638023266320802e-02 1.126007861916285790e+01 2.267686270641894808e+01
3.036872898470133197e+00 3.180664972957650966e-02 1.133411952675367473e+01 2.266426220629629640e+01
3.054326190990076295e+00 3.217950959204213257e-02 1.140815743485074663e+01 2.265291056358399047e+01
3.071779483510019837e+00 3.255487974088010217e-02 1.148217986611485486e+01 2.264268675952965992e+01
3.089232776029963379e+00 3.293267916297641651e-02 1.155617444475292643e+01 2.263355126280626095e+01
3.106686068549906921e+00 3.331282582858813290e-02 1.163012889651803938e+01 2.262547285836473066e+01
3.124139361069850018e+00 3.369523732173627939e-02 1.170403086242991542e+01 2.261832882443598081e+01
3.141592653589793116e+00 3.407983161335201294e-02 1.177786738239040432e+01 2.261179531340415139e+01
3.159045946109736214e+00 3.446652710858886387e-02 1.185162562383785456e+01 2.260577314903563462e+01
3.176499238629679756e+00 3.485524261406514057e-02 1.192529311048057750e+01 2.260023998400803080e+01
3.193952531149622853e+00 3.524589691715305367e-02 1.199885772229684733e+01 2.259520255126429333e+01
3.211405823669565951e+00 3.563840849431840208e-02 1.207230769553490468e+01 2.259068849796263834e+01
3.228859116189509493e+00 3.603269550526398690e-02 1.214563157690783157e+01 2.258671536778989264e+01
3.246312408709452590e+00 3.642867579292959762e-02 1.221881768307447125e+01 2.258313648530535289e+01
3.263765701229396576e+00 3.682626688349202593e-02 1.229185374805615361e+01 2.257969683924346782e+01
3.281218993749339674e+00 3.722538598636505186e-02 1.236472682948129354e+01 2.257611170595959749e+01
3.298672286269282772e+00 3.762594999419945768e-02 1.243742300372339216e+01 2.257199978324440792e+01
3.316125578789226314e+00 3.802787548288301400e-02 1.250992824281136606e+01 2.256725098946309416e+01
3.333578871309169411e+00 3.843107935914900214e-02 1.258223176452107950e+01 2.256277087332671627e+01
3.351032163829112509e+00 3.883548058791633922e-02 1.265432315811583308e+01 2.255848218482550749e+01
3.368485456349056051e+00 3.924099738752215988e-02 1.272618783496889705e+01 2.255303299938347550e+01
3.385938748868999149e+00 3.964754636662787268e-02 1.279781396060081455e+01 2.254729141301209694e+01
3.403392041388942246e+00 4.005504252421914629e-02 1.286919184502445823e+01 2.254194723134541789e+01
3.420845333908885788e+00 4.046339925005055377e-02 1.294030880634030645e+01 2.253606669320661737e+01
3.438298626428828886e+00 4.087253105142285570e-02 1.301114906334074384e+01 2.252851380475605936e+01
