# angles(rad), pulling distance(m),                                     elastic band force(n), cable force(n)
0.000000000000000000e+00 3.230219051475721249e-04 2.356376827770882004e-02 1.718927312969350391e-02
1.745329251994329547e-02 6.400579563520564404e-04 4.748135486565567553e-02 3.582051353459098086e-02
3.490658503988659095e-02 9.511690121510466348e-04 7.177242747673505396e-02 5.603880719807127070e-02
5.235987755982988295e-02 1.256420839027211052e-03 9.645681074584515347e-02 7.800041394452920940e-02
6.981317007977318190e-02 1.555884403892241700e-03 1.215547807991473189e-01 1.018747723018560286e-01
8.726646259971647390e-02 1.849630228014767768e-03 1.470880849922994449e-01 1.278535559957459378e-01
1.047197551196597659e-01 2.137730135615069100e-03 1.730801615728062015e-01 1.561511370009948663e-01
1.221730476396030718e-01 2.420245941110542916e-03 1.995561224732425309e-01 1.870139649984609020e-01
1.396263401595463638e-01 2.697209687033136002e-03 2.265427381593439482e-01 2.207372589801692153e-01
1.570796326794896558e-01 2.968686838016549277e-03 2.540685930640382284e-01 2.576075077842488459e-01
1.745329251994329478e-01 3.234749987689395853e-03 2.821644206533605592e-01 2.979609511601188365e-01
1.919862177193762398e-01 3.495471076935578562e-03 3.108632408288206084e-01 3.421820717879522911e-01
2.094395102393195318e-01 3.750914712286049311e-03 3.402006481838539820e-01 3.907165267407293197e-01
2.268928027592628516e-01 4.001109992721557825e-03 3.702150329991005795e-01 4.441241435682645178e-01
2.443460952792061436e-01 4.246122041893603781e-03 4.009480251012523255e-01 5.029276123541766008e-01
2.617993877991494078e-01 4.486026783584539865e-03 4.324446813020988434e-01 5.677487388058352069e-01
2.792526803190927276e-01 4.720892036635105510e-03 4.647537878379475185e-01 6.393359362086062925e-01
2.967059728390360474e-01 4.950776120142034824e-03 4.979292567671511072e-01 7.185811359716040014e-01
3.141592653589793116e-01 5.175720017675962230e-03 5.320294932330685844e-01 8.065269484962802604e-01
3.316125578789225758e-01 5.395787475952841354e-03 5.671117589859320240e-01 9.040666710153315577e-01
3.490658503988658956e-01 5.611061407419010508e-03 6.032146453160012189e-01 1.011631534954294809e+00
3.665191429188092154e-01 5.821606611106784970e-03 6.403568688897476324e-01 1.129651855026713836e+00
3.839724354387524796e-01 6.027450470421270683e-03 6.785502328892797363e-01 1.259018176350519491e+00
4.014257279586957439e-01 6.228660269632694223e-03 7.178110352824922380e-01 1.400619518648831940e+00
4.188790204786390636e-01 6.425317088790466133e-03 7.581609632787639219e-01 1.555590109150458256e+00
4.363323129985823834e-01 6.617482139757731481e-03 7.996183327655922435e-01 1.725083333470029956e+00
4.537856055185257032e-01 6.805197441212742365e-03 8.421916647691058966e-01 1.910068336299171499e+00
4.712388980384689674e-01 6.988515906846418969e-03 8.859024575988611039e-01 2.112362148440386722e+00
4.886921905584122872e-01 7.167547559020772188e-03 9.307719006278737384e-01 2.332728110421299572e+00
5.061454830783556069e-01 7.342481414920128298e-03 9.768081627564724201e-01 2.570605695439734717e+00
5.235987755982988157e-01 7.513542976442814415e-03 1.024030079567650464e+00 2.826857348842478412e+00
5.410520681182421354e-01 7.680956260659225175e-03 1.072460041567151245e+00 3.102453864529629346e+00
5.585053606381854552e-01 7.844921482393995768e-03 1.122112150747192505e+00 3.397991014904105267e+00
5.759586531581287749e-01 8.005624772695164176e-03 1.173001000570971897e+00 3.714464815831151956e+00
5.934119456780720947e-01 8.163240896801704505e-03 1.225143660716356386e+00 4.053027562511578807e+00
6.108652381980153034e-01 8.317932669193924336e-03 1.278556071857974930e+00 4.414634438639723157e+00
6.283185307179586232e-01 8.469851889997909167e-03 1.333255523988261082e+00 4.800468717907120819e+00
6.457718232379019430e-01 8.619140864451403650e-03 1.389265315747973739e+00 5.212204137571776918e+00
6.632251157578451517e-01 8.765933069828701907e-03 1.446602970577124614e+00 5.650492244365636907e+00
6.806784082777884715e-01 8.910353981867681974e-03 1.505260264990514019e+00 6.113691797521251914e+00
6.981317007977317912e-01 9.052521534742013695e-03 1.565206194591015176e+00 6.599799915959668084e+00
7.155849933176750000e-01 9.192547032833930584e-03 1.626405584101174862e+00 7.108350279001961702e+00
7.330382858376184307e-01 9.330535406877546456e-03 1.688823586152762068e+00 7.639266336447450456e+00
7.504915783575616395e-01 9.466585972787606995e-03 1.752425681286766679e+00 8.192391126851751082e+00
7.679448708775049592e-01 9.600792722262396078e-03 1.817177677953400350e+00 8.767508594463276239e+00
7.853981633974482790e-01 9.733244720763305213e-03 1.883044711365331692e+00 9.364190070624699658e+00
8.028514559173914877e-01 9.864026656479746996e-03 1.949988822796720145e+00 9.981521402642391294e+00
8.203047484373349185e-01 9.993218929475224110e-03 2.017974293980826506e+00 1.061928318410378935e+01
8.377580409572781273e-01 1.012089814535015869e-02 2.086969230996107427e+00 1.127750586958864254e+01
8.552113334772214470e-01 1.024713740108021930e-02 2.156944751436610908e+00 1.195613287406681025e+01
8.726646259971647668e-01 1.037200635944289517e-02 2.227866008402355824e+00 1.265350970641073935e+01
8.901179185171079755e-01 1.049557169781258591e-02 2.299691517529609541e+00 1.336754435034248978e+01
9.075712110370514063e-01 1.061789728316246684e-02 2.372388116239005473e+00 1.409881231108565913e+01
9.250245035569946150e-01 1.073904422155453654e-02 2.445923608251227233e+00 1.484661505641787471e+01
9.424777960769379348e-01 1.085907122250883219e-02 2.520267396099615809e+00 1.561033960085264205e+01
9.599310885968812546e-01 1.097803476292177893e-02 2.595376173850910462e+00 1.638615760308668712e+01
9.773843811168245743e-01 1.109598910149734233e-02 2.671216579635997679e+00 1.717496378564035808e+01
9.948376736367677831e-01 1.121298652489562293e-02 2.747763685471075856e+00 1.797760596193011651e+01
1.012290966156711214e+00 1.132907756128425682e-02 2.824971411547807065e+00 1.878780874926645339e+01
1.029744258676654312e+00 1.144431098753790482e-02 2.902809241145504426e+00 1.960788448393039829e+01
1.047197551196597631e+00 1.155873392243191022e-02 2.981246744937613435e+00 2.043659805421619424e+01
1.064650843716540951e+00 1.167239208782938110e-02 3.060248099083699547e+00 2.127112847591138234e+01
1.082104136236484271e+00 1.178532985409313366e-02 3.139776705102732102e+00 2.210970455929740197e+01
1.099557428756427591e+00 1.189759024728737763e-02 3.219796471112659209e+00 2.295086921459623852e+01
1.117010721276370910e+00 1.200921511083067814e-02 3.300272134199720764e+00 2.379322849200615053e+01
1.134464013796314230e+00 1.212024526496503427e-02 3.381170540787098666e+00 2.463576775898728854e+01
1.151917306316257550e+00 1.223072051352077673e-02 3.462460597188865563e+00 2.547752740219976175e+01
1.169370598836200648e+00 1.234067966207803152e-02 3.544102844050371015e+00 2.631418332107769942e+01
1.186823891356144189e+00 1.245016068924898779e-02 3.626064956878520373e+00 2.714625107177665342e+01
1.204277183876087287e+00 1.255920084080141240e-02 3.708311548628538734e+00 2.797097965104085660e+01
1.221730476396030607e+00 1.266783663063212641e-02 3.790810162934090677e+00 2.878762017791768102e+01
1.239183768915973927e+00 1.277610386236596555e-02 3.873522010924038916e+00 2.959216363275034567e+01
1.256637061435917246e+00 1.288403778570636204e-02 3.956415877203874221e+00 3.038549869423736993e+01
1.274090353955860566e+00 1.299167316524919499e-02 4.039458569830080670e+00 3.116517243823208716e+01
1.291543646475803886e+00 1.309904428078121491e-02 4.122611419933002175e+00 3.192729140753414185e+01
1.308996938995747206e+00 1.320618494457985459e-02 4.205840338668203948e+00 3.267177291510276405e+01
1.326450231515690303e+00 1.331312863936837294e-02 4.289111476057515304e+00 3.339693767894797816e+01
1.343903524035633845e+00 1.341990858433307100e-02 4.372390649210625924e+00 3.410088646225074882e+01
1.361356816555576943e+00 1.352655773553567559e-02 4.455643410373566482e+00 3.478176923943485832e+01
1.378810109075520263e+00 1.363310879645624613e-02 4.538835165026303464e+00 3.543781340099119603e+01
1.396263401595463582e+00 1.373959433786913799e-02 4.621931259901250755e+00 3.606728513395567148e+01
1.413716694115406902e+00 1.384604687392607288e-02 4.704897033899296588e+00 3.666849456642306393e+01
1.431169986635350000e+00 1.395249886336892738e-02 4.787697842320424613e+00 3.723981617394087351e+01
1.448623279155293542e+00 1.405898271478750461e-02 4.870299064852823712e+00 3.777968691927483746e+01
1.466076571675236861e+00 1.416553088927842430e-02 4.952666104970890437e+00 3.828657315891305757e+01
1.483529864195180181e+00 1.427217599387599345e-02 5.034764387128097596e+00 3.875897621454657838e+01
1.500983156715123279e+00 1.437895078495923275e-02 5.116559358315142525e+00 3.919547123851852888e+01
1.518436449235066599e+00 1.448588817068138454e-02 5.198016500933017703e+00 3.959471877746307911e+01
1.535889741755009918e+00 1.459302130046936236e-02 5.279101362828116706e+00 3.995544662816195114e+01
1.553343034274953460e+00 1.470038367850280171e-02 5.359779604840202438e+00 4.027645475178011480e+01
1.570796326794896558e+00 1.480800917102436873e-02 5.440017018031671370e+00 4.055664536512708906e+01
1.588249619314839878e+00 1.491593200778417588e-02 5.519779557450662288e+00 4.079503909957100660e+01
1.605702911834782975e+00 1.502418686806435144e-02 5.599031212559444803e+00 4.098961371827923017e+01
1.623156204354726295e+00 1.513280901364999834e-02 5.677734470158467772e+00 4.113859067821472593e+01
1.640609496874669837e+00 1.524183430022475576e-02 5.755865675557324757e+00 4.124847890556450380e+01
1.658062789394613157e+00 1.535129917925745838e-02 5.833427777366404499e+00 4.133315846709436414e+01
1.675516081914556255e+00 1.546124079830170708e-02 5.910423964202735192e+00 4.139288758759487763e+01
1.692969374434499574e+00 1.557169714946427842e-02 5.986863025943348404e+00 4.143086274859191320e+01
1.710422666954442894e+00 1.568270708139254954e-02 6.062749455864685721e+00 4.144497737467150245e+01
1.727875959474386436e+00 1.579431030534189651e-02 6.138091662400921855e+00 4.143763534795829173e+01
1.745329251994329534e+00 1.590654754021751660e-02 6.212893517883664174e+00 4.140657630860290794e+01
1.762782544514272853e+00 1.601946066073437272e-02 6.287163552883459516e+00 4.135461450225275115e+01
1.780235837034215951e+00 1.613309270410829763e-02 6.360907107990183995e+00 4.128024894380025955e+01
1.797689129554159271e+00 1.624748789935677451e-02 6.434129757100120806e+00 4.118389977032001781e+01
1.815142422074102813e+00 1.636269189429487292e-02 6.506839001131828226e+00 4.106692177320196180e+01
1.832595714594046132e+00 1.647875186151136553e-02 6.579041769923726690e+00 4.092927502727578570e+01
1.850049007113989230e+00 1.659571650011849170e-02 6.650743796029033206e+00 4.077059622133750594e+01
1.867502299633932550e+00 1.671363617314070710e-02 6.721950515599914411e+00 4.059102548931578269e+01
1.884955592153875870e+00 1.683256317326828691e-02 6.792668490739693254e+00 4.039148056753992222e+01
1.902408884673818967e+00 1.695255175324109770e-02 6.862904274317747522e+00 4.017227801488311911e+01
1.919862177193762509e+00 1.707365819006014321e-02 6.932664391953021088e+00 3.993375548081945681e+01
1.937315469713705829e+00 1.719594112891153007e-02 7.001955398606586556e+00 3.967622488223464217e+01
1.954768762233649149e+00 1.731946169783029135e-02 7.070783926471897907e+00 3.940004913941452713e+01
1.972222054753592246e+00 1.744428355155505997e-02 7.139156300912332220e+00 3.910541729904693398e+01
1.989675347273535566e+00 1.757047325587078601e-02 7.207077200929592031e+00 3.879168848484302856e+01
2.007128639793478886e+00 1.769810048692584126e-02 7.274553165828702816e+00 3.846024786531851447e+01
2.024581932313422428e+00 1.782723809390049374e-02 7.341591704066688706e+00 3.811202543635156559e+01
2.042035224833365525e+00 1.795796257141897903e-02 7.408200655596459683e+00 3.774751965037857104e+01
2.059488517353308623e+00 1.809035428010468544e-02 7.474382952433229477e+00 3.736426065804238306e+01
2.076941809873252165e+00 1.822449760487136056e-02 7.540146486890404454e+00 3.696543858334077015e+01
2.094395102393195263e+00 1.836048155673166912e-02 7.605499162613021724e+00 3.655135136780468486e+01
2.111848394913138804e+00 1.849839993096493926e-02 7.670443911742208520e+00 3.611955682678188850e+01
2.129301687433081902e+00 1.863835177234094906e-02 7.734991353464455877e+00 3.567469343032267659e+01
2.146754979953025444e+00 1.878044193666163902e-02 7.799143196880215179e+00 3.521210743441216096e+01
2.164208272472968542e+00 1.892478134794487593e-02 7.862909766747229412e+00 3.473692878069481793e+01
2.181661564992911639e+00 1.907148784592929691e-02 7.926294633007094248e+00 3.424573090844202738e+01
2.199114857512855181e+00 1.922068650265654211e-02 7.989304925503661003e+00 3.374081585201834343e+01
2.216568150032798723e+00 1.937251055177476033e-02 8.051949169888571234e+00 3.322321295624404769e+01
2.234021442552741821e+00 1.952710193062335078e-02 8.114230161581151179e+00 3.269019948260389441e+01
2.251474735072684918e+00 1.968461230998681810e-02 8.176155555687838472e+00 3.214465339425045443e+01
2.268928027592628460e+00 1.984520385950951787e-02 8.237732473878530470e+00 3.158660465811789209e+01
2.286381320112572002e+00 2.000905048441947373e-02 8.298967888089366696e+00 3.101624683626310031e+01
2.303834612632515100e+00 2.017633880510026276e-02 8.359866805413158630e+00 3.043289784660074559e+01
2.321287905152458197e+00 2.034726980453529371e-02 8.420435110395816380e+00 2.983727255669564116e+01
2.338741197672401295e+00 2.052206004261063546e-02 8.480679502439162576e+00 2.923008666643524833e+01
2.356194490192344837e+00 2.070094330765540405e-02 8.540606490905792825e+00 2.861155438718325783e+01
2.373647782712288379e+00 2.088417367257296153e-02 8.600222518795408888e+00 2.798177615200928514e+01
2.391101075232231477e+00 2.107202601722220348e-02 8.659533984507531201e+00 2.734113614413955773e+01
2.408554367752174574e+00 2.126479727221479085e-02 8.718547317415302089e+00 2.669021039130396744e+01
2.426007660272118116e+00 2.146282518986250207e-02 8.777268942635142679e+00 2.602741590304881569e+01
2.443460952792061214e+00 2.166642772904872963e-02 8.835705525596520005e+00 2.535962670369990590e+01
2.460914245312004311e+00 2.187575942685702352e-02 8.893863615244223197e+00 2.470959357161055436e+01
2.478367537831947853e+00 2.209078259604534480e-02 8.951747912164229604e+00 2.409813026460238561e+01
2.495820830351891395e+00 2.231142416295596800e-02 9.009364864062392897e+00 2.352648910510841418e+01
2.513274122871834493e+00 2.253757182689800770e-02 9.066721667491984604e+00 2.299551378812615710e+01
2.530727415391777591e+00 2.276915579751802310e-02 9.123825033435846166e+00 2.249728762734224574e+01
2.548180707911721132e+00 2.300611052024414960e-02 9.180681008674580923e+00 2.202853634224532087e+01
2.565634000431664674e+00 2.324836678199423620e-02 9.237295341593400266e+00 2.158719489686188098e+01
2.583087292951607772e+00 2.349585705345387868e-02 9.293674557109781631e+00 2.117134050175546633e+01
2.600540585471550870e+00 2.374851235327259114e-02 9.349825596698972063e+00 2.077939499424596903e+01
2.617993877991494411e+00 2.400626669966585830e-02 9.405754754625364811e+00 2.040919776715381317e+01
2.635447170511437509e+00 2.426904972297838289e-02 9.461468019520328454e+00 2.005948738324159564e+01
2.652900463031380607e+00 2.453676577544145268e-02 9.516971388457278636e+00 1.973075462887410225e+01
2.670353755551324149e+00 2.480933253940048253e-02 9.572271206319230785e+00 1.942074105242818050e+01
2.687807048071267690e+00 2.508668279969973602e-02 9.627374079997537137e+00 1.912729330816256734e+01
2.705260340591210788e+00 2.536875106659492243e-02 9.682286642869149418e+00 1.884930835608958688e+01
2.722713633111153886e+00 2.565547556378433222e-02 9.737015382824578680e+00 1.858559655879705730e+01
2.740166925631096984e+00 2.594678826853351675e-02 9.791566407368021530e+00 1.833562253547983190e+01
2.757620218151040525e+00 2.624259739146373241e-02 9.845945618361348295e+00 1.810000817101274251e+01
2.775073510670984067e+00 2.654281837725190260e-02 9.900159253905997048e+00 1.787761852210901026e+01
2.792526803190927165e+00 2.684738506974632469e-02 9.954213951302495644e+00 1.766680455275043471e+01
2.809980095710870263e+00 2.715624589265857800e-02 1.000811628725296032e+01 1.746614676669702249e+01
2.827433388230813804e+00 2.746933123268672713e-02 1.006187242073997368e+01 1.727603588625309428e+01
2.844886680750756902e+00 2.778652863569407161e-02 1.011548812715468593e+01 1.709815517166955701e+01
2.862339973270700000e+00 2.810777957870372670e-02 1.016896946807781710e+01 1.692913701245828406e+01
2.879793265790643542e+00 2.843302819553297084e-02 1.022232331671991368e+01 1.676871976667574771e+01
2.897246558310587083e+00 2.876218496834882440e-02 1.027555737201839392e+01 1.661851234854446702e+01
2.914699850830530625e+00 2.909518254985259123e-02 1.032868002262847895e+01 1.647720255587644544e+01
2.932153143350473723e+00 2.943194796074819972e-02 1.038169895406920062e+01 1.634451066753461035e+01
2.949606435870416821e+00 2.977239912880194975e-02 1.043462033210563078e+01 1.622007909148353022e+01
2.967059728390360362e+00 3.011647786241762603e-02 1.048744879238987160e+01 1.610200567148713802e+01
2.984513020910303460e+00 3.046411908348662864e-02 1.054018744046105205e+01 1.598991150466655498e+01
3.001966313430246558e+00 3.081523226275071151e-02 1.059283785174533321e+01 1.588425905091473211e+01
3.019419605950190100e+00 3.116973564524132961e-02 1.064540007155590295e+01 1.578393567365708883e+01
3.036872898470133197e+00 3.152756128395196866e-02 1.069787261509297771e+01 1.568765694298076241e+01
3.054326190990076295e+00 3.188864213344282106e-02 1.075025240305169660e+01 1.559473292944109346e+01
3.071779483510019837e+00 3.225290833297685816e-02 1.080253482741023241e+01 1.550466968159522274e+01
3.089232776029963379e+00 3.262028371218373551e-02 1.085471498046383587e+01 1.541749178338043080e+01
3.106686068549906921e+00 3.299068894995078882e-02 1.090678797818136303e+01 1.533318343221123214e+01
3.124139361069850018e+00 3.336405123563341429e-02 1.095874896020529121e+01 1.525133575516003859e+01
3.141592653589793116e+00 3.374030474137633406e-02 1.101059308985170659e+01 1.517154277425402853e+01
3.159045946109736214e+00 3.411938104408895889e-02 1.106231555411030243e+01 1.509380081979320387e+01
3.176499238629679756e+00 3.450120434266388397e-02 1.111391156364439503e+01 1.501829482745211486e+01
3.193952531149622853e+00 3.488569325381967595e-02 1.116537635279090601e+01 1.494513165569495605e+01
3.211405823669565951e+00 3.527276852600477047e-02 1.121670517956036939e+01 1.487411773518019942e+01
3.228859116189509493e+00 3.566235507033269775e-02 1.126789331486247292e+01 1.480498892911811737e+01
3.246312408709452590e+00 3.605438191673502463e-02 1.131893598357127928e+01 1.473747792651646193e+01
3.263765701229396576e+00 3.644878019463685531e-02 1.136982834447655044e+01 1.467139792334750403e+01
3.281218993749339674e+00 3.684548031186142547e-02 1.142056549026706591e+01 1.460667318033100059e+01
3.298672286269282772e+00 3.724441174477794575e-02 1.147114247759521355e+01 1.454324678020859807e+01
3.316125578789226314e+00 3.764550303830159483e-02 1.152155455379495486e+01 1.448112924623057118e+01
3.333578871309169411e+00 3.804868180589351945e-02 1.157179726029431066e+01 1.442036288000868538e+01
3.351032163829112509e+00 3.845387472956084129e-02 1.162186639547839917e+01 1.436098129207121055e+01
3.368485456349056051e+00 3.886100755985665706e-02 1.167175747550160203e+01 1.430286488560929392e+01
3.385938748868999149e+00 3.927000511588002452e-02 1.172146533134836055e+01 1.424577972221772804e+01
3.403392041388942246e+00 3.968079073385559485e-02 1.177098428756042026e+01 1.418956336351605252e+01
3.420845333908885788e+00 4.009328543640047759e-02 1.182030919723022677e+01 1.413437990416663936e+01
3.438298626428828886e+00 4.050741288089763220e-02 1.186943576782711318e+01 1.408031952341131898e+01
