# angles(rad), pulling distance(m),                                     elastic band force(n), cable force(n)
0.000000000000000000e+00 3.219986763571647628e-04 2.466118552201168254e-02 1.888747116079709382e-02
1.745329251994329547e-02 6.318928754375754053e-04 4.973854606879724027e-02 4.024959023245486267e-02
3.490658503988659095e-02 9.305903205860246519e-04 7.525433019469512930e-02 6.428489011121524266e-02
5.235987755982988295e-02 1.218683280190635803e-03 1.012321801667137311e-01 9.128284121626815961e-02
6.981317007977318190e-02 1.496357649478144685e-03 1.276973526554422145e-01 1.217084772012587274e-01
8.726646259971647390e-02 1.763966053482289836e-03 1.546768558917999692e-01 1.559407205334933932e-01
1.047197551196597659e-01 2.021840890067316300e-03 1.821996255921193297e-01 1.944601652904154321e-01
1.221730476396030718e-01 2.270274079053676442e-03 2.102967333277612760e-01 2.378397989766207477e-01
1.396263401595463638e-01 2.509949189581667239e-03 2.390015627182797697e-01 2.862416154427647741e-01
1.570796326794896558e-01 2.741526607081920964e-03 2.683500387770009210e-01 3.400877673400544143e-01
1.745329251994329478e-01 2.965603353321513789e-03 2.983727561336957934e-01 3.997720010965241100e-01
1.919862177193762398e-01 3.182713594340868396e-03 3.290891315591817912e-01 4.655895210635337955e-01
2.094395102393195318e-01 3.393339809184206177e-03 3.605056175210808456e-01 5.377212746504921315e-01
2.268928027592628516e-01 3.597918533991252554e-03 3.926382745938381547e-01 6.167068957469789003e-01
2.443460952792061436e-01 3.796846229864749185e-03 4.255011674552748313e-01 7.029287308184182237e-01
2.617993877991494078e-01 3.990484125680386976e-03 4.591022101857622495e-01 7.966577470352362855e-01
2.792526803190927276e-01 4.179162269867354312e-03 4.934587154842050571e-01 8.985416432915552809e-01
2.967059728390360474e-01 4.363182994680307042e-03 5.285819975485230859e-01 1.008882809960035765e+00
3.141592653589793116e-01 4.542824113821730680e-03 5.644820111938024798e-01 1.128077580524234680e+00
3.316125578789225758e-01 4.718341502948273335e-03 6.011751375010154774e-01 1.256798278669533309e+00
3.490658503988658956e-01 4.889971272863649111e-03 6.386743092029588675e-01 1.395431433266531851e+00
3.665191429188092154e-01 5.057932046590399300e-03 6.769875618626236546e-01 1.544265064370933915e+00
3.839724354387524796e-01 5.222426380384799678e-03 7.161303197746019533e-01 1.704090049411721708e+00
4.014257279586957439e-01 5.383642663206271266e-03 7.561169527343470920e-01 1.875404303739636180e+00
4.188790204786390636e-01 5.541756129102699997e-03 7.969608950084300369e-01 2.058713001190429104e+00
4.363323129985823834e-01 5.696930426908339631e-03 8.386699606297234322e-01 2.254248346354776444e+00
4.537856055185257032e-01 5.849318303058334556e-03 8.812581929066434228e-01 2.462874971661471957e+00
4.712388980384689674e-01 5.999062977201318446e-03 9.247388211764475674e-01 2.685118863849345505e+00
4.886921905584122872e-01 6.146298569487704949e-03 9.691249419425914668e-01 2.921555586021382211e+00
5.061454830783556069e-01 6.291151230621938248e-03 1.014429320730422246e+00 3.172747386205362563e+00
5.235987755982988157e-01 6.433739613207614845e-03 1.060664581771266546e+00 3.439277655422305457e+00
5.410520681182421354e-01 6.574175467882512926e-03 1.107843448016403443e+00 3.721755955807161786e+00
5.585053606381854552e-01 6.712564448044687146e-03 1.155978651045111771e+00 4.020787421057802291e+00
5.759586531581287749e-01 6.849006245745032327e-03 1.205084210882193085e+00 4.337111927839105263e+00
5.934119456780720947e-01 6.983595327623480856e-03 1.255173425542187360e+00 4.671303962403384524e+00
6.108652381980153034e-01 7.116421336305312102e-03 1.306255014438123974e+00 5.023532838407924750e+00
6.283185307179586232e-01 7.247569199357787803e-03 1.358341960059059161e+00 5.394817891918008534e+00
6.457718232379019430e-01 7.377119780154911717e-03 1.411449727340059690e+00 5.786075460811206383e+00
6.632251157578451517e-01 7.505150127142203378e-03 1.465588159970063975e+00 6.197331158506266924e+00
6.806784082777884715e-01 7.631733532824125019e-03 1.520750631966183208e+00 6.627121753992782693e+00
6.981317007977317912e-01 7.756940038659878613e-03 1.576919211306716528e+00 7.074178074267429395e+00
7.155849933176750000e-01 7.880836693300826909e-03 1.634070160714833131e+00 7.537625721611711960e+00
7.330382858376184307e-01 8.003487562488916657e-03 1.692174120096617385e+00 8.016414151148048006e+00
7.504915783575616395e-01 8.124954012756735108e-03 1.751198255522483427e+00 8.509589500935936357e+00
7.679448708775049592e-01 8.245295068728862586e-03 1.811113622432211301e+00 9.017166778756305234e+00
7.853981633974482790e-01 8.364567435903386139e-03 1.871892383733859022e+00 9.538781116573085583e+00
8.028514559173914877e-01 8.482825552807920361e-03 1.933506577083134781e+00 1.007384957589576224e+01
8.203047484373349185e-01 8.600121940874007678e-03 1.995928114883399163e+00 1.062171685965367374e+01
8.377580409572781273e-01 8.716507348332820995e-03 2.059128784285663372e+00 1.118166962626964533e+01
8.552113334772214470e-01 8.832030750659008306e-03 2.123080248092002353e+00 1.175295108262514354e+01
8.726646259971647668e-01 8.946739427617774951e-03 2.187754280886794689e+00 1.233480289898900750e+01
8.901179185171079755e-01 9.060679260075138811e-03 2.253123319677501790e+00 1.292651590824127972e+01
9.075712110370514063e-01 9.173894801460222986e-03 2.319160505112323634e+00 1.352736827961625998e+01
9.250245035569946150e-01 9.286429277765262738e-03 2.385838538228600925e+00 1.413638080394865071e+01
9.424777960769379348e-01 9.398324643378256488e-03 2.453128373367940096e+00 1.475222882692783166e+01
9.599310885968812546e-01 9.509621824772745979e-03 2.521001077449473105e+00 1.537389877938323934e+01
9.773843811168245743e-01 9.620360786975621498e-03 2.589430938071571653e+00 1.600108892642175107e+01
9.948376736367677831e-01 9.730580533568625873e-03 2.658390838564422154e+00 1.663244322049131796e+01
1.012290966156711214e+00 9.840319126456638713e-03 2.727848682090435073e+00 1.726562022866750823e+01
1.029744258676654312e+00 9.949613870568432827e-03 2.797778804961327026e+00 1.790104521370225754e+01
1.047197551196597631e+00 1.005850141459720300e-02 2.868156458059123448e+00 1.853785224342593096e+01
1.064650843716540951e+00 1.016701775201700984e-02 2.938946500145072971e+00 1.917205753349075792e+01
1.082104136236484271e+00 1.027519822253780864e-02 3.010121902649284031e+00 1.980455778907101916e+01
1.099557428756427591e+00 1.038307760777429020e-02 3.081658136197390263e+00 2.043487879201321178e+01
1.117010721276370910e+00 1.049069028455456437e-02 3.153528056769769883e+00 2.106106991703019915e+01
1.134464013796314230e+00 1.059807023871294808e-02 3.225704028399223322e+00 2.168173047413985799e+01
1.151917306316257550e+00 1.070525106508995669e-02 3.298155586316178667e+00 2.229470685741726399e+01
1.169370598836200648e+00 1.081226598725521654e-02 3.370853217486439402e+00 2.289896016141461743e+01
1.186823891356144189e+00 1.091914800729870683e-02 3.443769441195091652e+00 2.349381709599305879e+01
1.204277183876087287e+00 1.102592997457631750e-02 3.516876744089870499e+00 2.407797682780529058e+01
1.221730476396030607e+00 1.113264458607013396e-02 3.590147419154086972e+00 2.465009442467163936e+01
1.239183768915973927e+00 1.123932438666694171e-02 3.663553737176841629e+00 2.520889514417624611e+01
1.256637061435917246e+00 1.134600183289295738e-02 3.737067975986472224e+00 2.575312002243008536e+01
1.274090353955860566e+00 1.145270943748957770e-02 3.810662454816601041e+00 2.628151183975228022e+01
1.291543646475803886e+00 1.155947978934890145e-02 3.884309603768488550e+00 2.679286178066508484e+01
1.308996938995747206e+00 1.166634555351373122e-02 3.957980684262194515e+00 2.728551242407877098e+01
1.326450231515690303e+00 1.177333947904354167e-02 4.031645104791883760e+00 2.775753847288332210e+01
1.343903524035633845e+00 1.188049452309271163e-02 4.105275161682140350e+00 2.820881148311713460e+01
1.361356816555576943e+00 1.198784394979819992e-02 4.178843169676924596e+00 2.863817508398714295e+01
1.378810109075520263e+00 1.209542133302593005e-02 4.252321651553366166e+00 2.904459376419578831e+01
1.396263401595463582e+00 1.220326055637178247e-02 4.325683221106912946e+00 2.942703968426273420e+01
1.413716694115406902e+00 1.231139585922449986e-02 4.398900584509714662e+00 2.978452865735432553e+01
1.431169986635350000e+00 1.241986200586896703e-02 4.471946502981185567e+00 3.011607305791618572e+01
1.448623279155293542e+00 1.252869432428161366e-02 4.544793753710463236e+00 3.042071830484231043e+01
1.466076571675236861e+00 1.263792870613040728e-02 4.617413197871901964e+00 3.069674348112303264e+01
1.483529864195180181e+00 1.274760161596988350e-02 4.689774319180312290e+00 3.094267571782130943e+01
1.500983156715123279e+00 1.285775024350888605e-02 4.761872434181198877e+00 3.116897904675040465e+01
1.518436449235066599e+00 1.296841262882153338e-02 4.833713779949465383e+00 3.138017511813901805e+01
1.535889741755009918e+00 1.307962766606586905e-02 4.905306086212012140e+00 3.157686085777133300e+01
1.553343034274953460e+00 1.319143510465603519e-02 4.976656942460047972e+00 3.175895437501658236e+01
1.570796326794896558e+00 1.330387566299299357e-02 5.047773929447753716e+00 3.192642211733128121e+01
1.588249619314839878e+00 1.341699123564609082e-02 5.118664589728108893e+00 3.207918273395809194e+01
1.605702911834782975e+00 1.353082491535009466e-02 5.189336438120950135e+00 3.221717851587914794e+01
1.623156204354726295e+00 1.364542099330142387e-02 5.259796967930383538e+00 3.234038089923325998e+01
1.640609496874669837e+00 1.376082506698749972e-02 5.330053642186334706e+00 3.244875423760824162e+01
1.658062789394613157e+00 1.387708430791294995e-02 5.400113922553723356e+00 3.254222996970644033e+01
1.675516081914556255e+00 1.399424750244340591e-02 5.469984779588878077e+00 3.262052780745763414e+01
1.692969374434499574e+00 1.411236505344406686e-02 5.539673545916389052e+00 3.268379779308943256e+01
1.710422666954442894e+00 1.423148914714265738e-02 5.609187745906332623e+00 3.273210201595728108e+01
1.727875959474386436e+00 1.435167406155094319e-02 5.678534890101989419e+00 3.276535826336791501e+01
1.745329251994329534e+00 1.447297619980957711e-02 5.747722481514434101e+00 3.278351728270877885e+01
1.762782544514272853e+00 1.459545411361240497e-02 5.816758016446586410e+00 3.278656443175006530e+01
1.780235837034215951e+00 1.471916884364954381e-02 5.885648987189807002e+00 3.277443777791346236e+01
1.797689129554159271e+00 1.484418417663241861e-02 5.954402883894617915e+00 3.274705518515905567e+01
1.815142422074102813e+00 1.497056665245775041e-02 6.023027196725040611e+00 3.270438404019280654e+01
1.832595714594046132e+00 1.509838577540745415e-02 6.091529417123132895e+00 3.264638976262037318e+01
1.850049007113989230e+00 1.522771450306401042e-02 6.159917041407073413e+00 3.257297120920332389e+01
1.867502299633932550e+00 1.535862931529710824e-02 6.228197566936512608e+00 3.248407080280559711e+01
1.884955592153875870e+00 1.549121037399329125e-02 6.296378507691835935e+00 3.237966374893554189e+01
1.902408884673818967e+00 1.562554215116189471e-02 6.364467347618769644e+00 3.225961924915966250e+01
1.919862177193762509e+00 1.576171358333952610e-02 6.432470996900531368e+00 3.212358823675364761e+01
1.937315469713705829e+00 1.589981829651300124e-02 6.500396902006662536e+00 3.197177945427974421e+01
1.954768762233649149e+00 1.603995536448572096e-02 6.568252545045159430e+00 3.180407628979672907e+01
1.972222054753592246e+00 1.618222947692955077e-02 6.636045407057536316e+00 3.162040534718717666e+01
1.989675347273535566e+00 1.632675145249690499e-02 6.703782992692508103e+00 3.142069382618892703e+01
2.007128639793478886e+00 1.647363903990668038e-02 6.771472820402002490e+00 3.120480338980821955e+01
2.024581932313422428e+00 1.662301713281244889e-02 6.839122429377924917e+00 3.097267806047989680e+01
2.042035224833365525e+00 1.677501879987957495e-02 6.906739373800713011e+00 3.072417700358047199e+01
2.059488517353308623e+00 1.692978577171332100e-02 6.974331242681595988e+00 3.045921731889725592e+01
2.076941809873252165e+00 1.708746945152304908e-02 7.041905607256968125e+00 3.017765043182206952e+01
2.094395102393195263e+00 1.724823196296860692e-02 7.109470158907702952e+00 2.987936425237708349e+01
2.111848394913138804e+00 1.741224683278177338e-02 7.177032458984133889e+00 2.956419873420836808e+01
2.129301687433081902e+00 1.757969998842595291e-02 7.244598878359627570e+00 2.923155458847197607e+01
2.146754979953025444e+00 1.775079201112599731e-02 7.312176794727423434e+00 2.888163130591718541e+01
2.164208272472968542e+00 1.792574099447684366e-02 7.379773886446891140e+00 2.851409837979356254e+01
2.181661564992911639e+00 1.810477850273361014e-02 7.447397843137365747e+00 2.812944137263003341e+01
2.199114857512855181e+00 1.828813504370654930e-02 7.515056345869912668e+00 2.773053296131508816e+01
2.216568150032798723e+00 1.847597268588290972e-02 7.582757256610478613e+00 2.732996252770085732e+01
2.234021442552741821e+00 1.866839466166521702e-02 7.650508196928550220e+00 2.693710643733443177e+01
2.251474735072684918e+00 1.886550506064032379e-02 7.718315608659749749e+00 2.655156739923358700e+01
2.268928027592628460e+00 1.906736547003575269e-02 7.786186642734545416e+00 2.617930581457159533e+01
2.286381320112572002e+00 1.927395895664226269e-02 7.854129090926996071e+00 2.582989268550923256e+01
2.303834612632515100e+00 1.948519659033641840e-02 7.922150773799038426e+00 2.551051241087511556e+01
2.321287905152458197e+00 1.970104121626013380e-02 7.990259776677199888e+00 2.521298011465422206e+01
2.338741197672401295e+00 1.992146433942526204e-02 8.058463749016487654e+00 2.493473600876878749e+01
2.356194490192344837e+00 2.014638957132140404e-02 8.126768338539985592e+00 2.467911540368412204e+01
2.373647782712288379e+00 2.037575882713704017e-02 8.195181234048037666e+00 2.444338389819464297e+01
2.391101075232231477e+00 2.060954535880177643e-02 8.263710719049552011e+00 2.422328761821411192e+01
2.408554367752174574e+00 2.084770810006314826e-02 8.332364751387556723e+00 2.401930864853498804e+01
2.426007660272118116e+00 2.109015697850883525e-02 8.401150749642209092e+00 2.383519134040572851e+01
2.443460952792061214e+00 2.133684498315583863e-02 8.470074766736114924e+00 2.366517897149251581e+01
2.460914245312004311e+00 2.158774860296483467e-02 8.539144405060357101e+00 2.350685957041964613e+01
2.478367537831947853e+00 2.184281997620684743e-02 8.608368642838524210e+00 2.336239266052661634e+01
2.495820830351891395e+00 2.210197220533605122e-02 8.677755188768731642e+00 2.323419948961362635e+01
2.513274122871834493e+00 2.236516366002981593e-02 8.747309180237706983e+00 2.311664217239322383e+01
2.530727415391777591e+00 2.263236433672230485e-02 8.817038682738944644e+00 2.300921271951398239e+01
2.548180707911721132e+00 2.290351549637551984e-02 8.886947078929738453e+00 2.291239388815451505e+01
2.565634000431664674e+00 2.317854785478994789e-02 8.957027598661101209e+00 2.282324716193880576e+01
2.583087292951607772e+00 2.345742790635414743e-02 9.027266379824760989e+00 2.273608973471529637e+01
2.600540585471550870e+00 2.374011645347638699e-02 9.097654199504406236e+00 2.265263484571200792e+01
2.617993877991494411e+00 2.402653060002335472e-02 9.168183172502276435e+00 2.257648762146254029e+01
2.635447170511437509e+00 2.431663043833943647e-02 9.238839876236639270e+00 2.250211429877523628e+01
2.652900463031380607e+00 2.461037689157628827e-02 9.309612677413387161e+00 2.242979820831579829e+01
2.670353755551324149e+00 2.490770694757900999e-02 9.380492408166375640e+00 2.236190935958407522e+01
2.687807048071267690e+00 2.520857267649482397e-02 9.451469198445137110e+00 2.229682156028878737e+01
2.705260340591210788e+00 2.551292425775561132e-02 9.522532512621276979e+00 2.223424359727806987e+01
2.722713633111153886e+00 2.582070699118839754e-02 9.593671487225925887e+00 2.217421181114296758e+01
2.740166925631096984e+00 2.613187779701034441e-02 9.664875354495656268e+00 2.211571551843391958e+01
2.757620218151040525e+00 2.644638321488895771e-02 9.736133660248379229e+00 2.205940978349442005e+01
2.775073510670984067e+00 2.676415888772539636e-02 9.807435973192681899e+00 2.200586541757472858e+01
2.792526803190927165e+00 2.708516317177762228e-02 9.878771692784955150e+00 2.195326736754554986e+01
2.809980095710870263e+00 2.740935635654219091e-02 9.950130189114208434e+00 2.190133420266471020e+01
2.827433388230813804e+00 2.773667967497540562e-02 1.002150101583492692e+01 2.185126363457012033e+01
2.844886680750756902e+00 2.806707401966618970e-02 1.009287391270822809e+01 2.180296547149244191e+01
2.862339973270700000e+00 2.840048630922729217e-02 1.016423861032989606e+01 2.175588116249456050e+01
2.879793265790643542e+00 2.873686727395606891e-02 1.023558469170679963e+01 2.170957738180922902e+01
2.897246558310587083e+00 2.907616889644747474e-02 1.030690158936788769e+01 2.166379990919396548e+01
2.914699850830530625e+00 2.941834105145634676e-02 1.037817862441891137e+01 2.161852712881637117e+01
2.932153143350473723e+00 2.976333265135873082e-02 1.044940511626794333e+01 2.157369827415181618e+01
2.949606435870416821e+00 3.011109334231922355e-02 1.052057040175287028e+01 2.152915540963427432e+01
2.967059728390360362e+00 3.046157332153052663e-02 1.059166383514139653e+01 2.148475781788655325e+01
2.984513020910303460e+00 3.081472298001000296e-02 1.066267478813103153e+01 2.144039162840527624e+01
3.001966313430246558e+00 3.117049189469211709e-02 1.073359264984910766e+01 2.139600757307036005e+01
3.019419605950190100e+00 3.152882692115154678e-02 1.080440682685276599e+01 2.135167150741507669e+01
3.036872898470133197e+00 3.188967272652962204e-02 1.087510674312895809e+01 2.130741510015049300e+01
3.054326190990076295e+00 3.225297606436754866e-02 1.094568186406700860e+01 2.126302571022822718e+01
3.071779483510019837e+00 3.261868727508769605e-02 1.101612174840994562e+01 2.121822681721140924e+01
3.089232776029963379e+00 3.298675861882369859e-02 1.108641589647153758e+01 2.117280178860980300e+01
3.106686068549906921e+00 3.335714075785437688e-02 1.115655370619741582e+01 2.112672719828418977e+01
3.124139361069850018e+00 3.372978231151150391e-02 1.122652447316506930e+01 2.108000355996977504e+01
3.141592653589793116e+00 3.410463045754932865e-02 1.129631739058384809e+01 2.103259560200083556e+01
3.159045946109736214e+00 3.448163270444184331e-02 1.136592154929496523e+01 2.098436850008479126e+01
3.176499238629679756e+00 3.486073721626076899e-02 1.143532605883980757e+01 2.093520841498777685e+01
3.193952531149622853e+00 3.524189281259620943e-02 1.150452060144053767e+01 2.088517257809797911e+01
3.211405823669565951e+00 3.562504880116903333e-02 1.157349558804421719e+01 2.083437886790034099e+01
3.228859116189509493e+00 3.601015445734554593e-02 1.164224149494544491e+01 2.078277576806801363e+01
3.246312408709452590e+00 3.639715892326567115e-02 1.171074728837117185e+01 2.072983919424952504e+01
3.263765701229396576e+00 3.678601120784293077e-02 1.177900074458479196e+01 2.067513920960348628e+01
3.281218993749339674e+00 3.717666018676445139e-02 1.184699050782143104e+01 2.061887072934873544e+01
3.298672286269282772e+00 3.756905460249098522e-02 1.191470668555630397e+01 2.056141380310358002e+01
3.316125578789226314e+00 3.796314306425686846e-02 1.198214088129794597e+01 2.050316393361851652e+01
3.333578871309169411e+00 3.835887404807006990e-02 1.204928289319627588e+01 2.044351158925706002e+01
3.351032163829112509e+00 3.875619589671214227e-02 1.211611983845330087e+01 2.038157330481400464e+01
3.368485456349056051e+00 3.915505720815613128e-02 1.218264080610637912e+01 2.031786567762569717e+01
3.385938748868999149e+00 3.955540780128657258e-02 1.224883638647837891e+01 2.025271967613710444e+01
3.403392041388942246e+00 3.995719675251151182e-02 1.231469708750881686e+01 2.018608477630234432e+01
3.420845333908885788e+00 4.036037180781107403e-02 1.238021263929499050e+01 2.011772433914393687e+01
3.438298626428828886e+00 4.076487938273743589e-02 1.244537240532493705e+01 2.004752455461803962e+01
