# angles(rad), pulling distance(m),                                     elastic band force(n), cable force(n)
0.000000000000000000e+00 3.252532823417860841e-04 2.190097165529494155e-02 1.474704746997753009e-02
1.745329251994329547e-02 6.458127924925112333e-04 4.410264878256252297e-02 3.054511682611887533e-02
3.490658503988659095e-02 9.619040506366400341e-04 6.662365480903571779e-02 4.746830836985085900e-02
5.235987755982988295e-02 1.273594746431531673e-03 8.948281881510274094e-02 6.562603435444404332e-02
6.981317007977318190e-02 1.580921730530600311e-03 1.126991755343069862e-01 8.513617080631147305e-02
8.726646259971647390e-02 1.883921245995492846e-03 1.362919653533470887e-01 1.061225357958694854e-01
1.047197551196597659e-01 2.182597377650882450e-03 1.602807620582547277e-01 1.287328383226621076e-01
1.221730476396030718e-01 2.476994311705078573e-03 1.846863767392550038e-01 1.531056891611017046e-01
1.396263401595463638e-01 2.767125361879425784e-03 2.095312468212842949e-01 1.794284549093293213e-01
1.570796326794896558e-01 3.053023960326788338e-03 2.348394169081455263e-01 2.078833522964932401e-01
1.745329251994329478e-01 3.334711755840668451e-03 2.606365213823023663e-01 2.386921861351555263e-01
1.919862177193762398e-01 3.612217317442112559e-03 2.869499642661304528e-01 2.720897358474434480e-01
2.094395102393195318e-01 3.885563025616268953e-03 3.138091870655940752e-01 3.083520472376754529e-01
2.268928027592628516e-01 4.154780087107333778e-03 3.412458475057642548e-01 3.477731460546558684e-01
2.443460952792061436e-01 4.419885751089087760e-03 3.692940510694132095e-01 3.907134447324501214e-01
2.617993877991494078e-01 4.680918729115973384e-03 3.979906258359863780e-01 4.375296882802820475e-01
2.792526803190927276e-01 4.937887701097091152e-03 4.273754101294222618e-01 4.887101404559658357e-01
2.967059728390360474e-01 5.190836178351880895e-03 4.574916317436344415e-01 5.446927183657506166e-01
3.141592653589793116e-01 5.439772797427513615e-03 4.883862829561732566e-01 6.061190966980640749e-01
3.316125578789225758e-01 5.684734508323853810e-03 5.201105957681451120e-01 6.735808292893586957e-01
3.490658503988658956e-01 5.925743672850774038e-03 5.527205376746777699e-01 7.478630391295977287e-01
3.665191429188092154e-01 6.162823038095877580e-03 5.862775697034067202e-01 8.298375172349145013e-01
3.839724354387524796e-01 6.396008919058573071e-03 6.208490903103321967e-01 9.204544044795002211e-01
4.014257279586957439e-01 6.625310941898074867e-03 6.565095646511049932e-01 1.020987176423619802e+00
4.188790204786390636e-01 6.850772178887297968e-03 6.933404303893063725e-01 1.132626106533596744e+00
4.363323129985823834e-01 7.072401108257456680e-03 7.314080469013513053e-01 1.256287305199305759e+00
4.537856055185257032e-01 7.290236749708457059e-03 7.707622469125939846e-01 1.392459536192850678e+00
4.712388980384689674e-01 7.504295839994651329e-03 8.114516374387781283e-01 1.542446645209694545e+00
4.886921905584122872e-01 7.714610271298574101e-03 8.535230751866688115e-01 1.707393197008558516e+00
5.061454830783556069e-01 7.921201711640239035e-03 8.970252048317608473e-01 1.888873357529743613e+00
5.235987755982988157e-01 8.124099300019104256e-03 9.420067818682897887e-01 2.088391043289250071e+00
5.410520681182421354e-01 8.323324607468329112e-03 9.885167891530629580e-01 2.307735079106193687e+00
5.585053606381854552e-01 8.518910121284511278e-03 1.036604361618765235e+00 2.548644139588689850e+00
5.759586531581287749e-01 8.710871027269456029e-03 1.086318760184609822e+00 2.813368875098317901e+00
5.934119456780720947e-01 8.899250240055974273e-03 1.137709298746635289e+00 3.103712597837015252e+00
6.108652381980153034e-01 9.084062357430429391e-03 1.190825264900585267e+00 3.422493901607685185e+00
6.283185307179586232e-01 9.265368577188126675e-03 1.245715833503233672e+00 3.771412283025777246e+00
6.457718232379019430e-01 9.443350172734045478e-03 1.302429990093717294e+00 4.150216665928233795e+00
6.632251157578451517e-01 9.618181748821164750e-03 1.361016475131008097e+00 4.560799206891321234e+00
6.806784082777884715e-01 9.790022789715763923e-03 1.421523785221330050e+00 5.005357278178525604e+00
6.981317007977317912e-01 9.959025172152318264e-03 1.484000189202866027e+00 5.486017060387936795e+00
7.155849933176750000e-01 1.012533076336469100e-02 1.548494027988421395e+00 6.005109237364587571e+00
7.330382858376184307e-01 1.028907341652310174e-02 1.615053325269130369e+00 6.564985501779404764e+00
7.504915783575616395e-01 1.045037931989020903e-02 1.683728662903489770e+00 7.168406859009280652e+00
7.679448708775049592e-01 1.060936764894791426e-02 1.754560627902403747e+00 7.816861635104618955e+00
7.853981633974482790e-01 1.076615114436213841e-02 1.827535459717456678e+00 8.506258420669636777e+00
8.028514559173914877e-01 1.092083658799847777e-02 1.902581912208742621e+00 9.230475714381372043e+00
8.203047484373349185e-01 1.107352529108676306e-02 1.979634265093807910e+00 9.989964869187334173e+00
8.377580409572781273e-01 1.122431349533165208e-02 2.058629808279394346e+00 1.078483431362851874e+01
8.552113334772214470e-01 1.137329274359475187e-02 2.139501601459799840e+00 1.161405585272112617e+01
8.726646259971647668e-01 1.152055025766408891e-02 2.222178320209044600e+00 1.247626738450071038e+01
8.901179185171079755e-01 1.166616922322570755e-02 2.306584946820967374e+00 1.336989681283066211e+01
9.075712110370514063e-01 1.181022910304220519e-02 2.392646484738297552e+00 1.429369762291672252e+01
9.250245035569946150e-01 1.195280590375885285e-02 2.480292453667455099e+00 1.524705521772730954e+01
9.424777960769379348e-01 1.209397240426422424e-02 2.569457840647225932e+00 1.622953759350277636e+01
9.599310885968812546e-01 1.223379841714357028e-02 2.660082309870929862e+00 1.724060798554226537e+01
9.773843811168245743e-01 1.237235095688704947e-02 2.752098163289107280e+00 1.827730200070653410e+01
9.948376736367677831e-01 1.250969448036280164e-02 2.845425418274836193e+00 1.933514859920518347e+01
1.012290966156711214e+00 1.264589102220388568e-02 2.939997450029903536e+00 2.041472774899590092e+01
1.029744258676654312e+00 1.278100040592319332e-02 3.035750911529096374e+00 2.151469054378492629e+01
1.047197551196597631e+00 1.291508035901510650e-02 3.132614672284938173e+00 2.263103701628237729e+01
1.064650843716540951e+00 1.304818669832374933e-02 3.230519765140551502e+00 2.376177868167415497e+01
1.082104136236484271e+00 1.318037342693157907e-02 3.329399133651228304e+00 2.490483631167847278e+01
1.099557428756427591e+00 1.331169290138808740e-02 3.429194067738045693e+00 2.605982070649857363e+01
1.117010721276370910e+00 1.344219591017001801e-02 3.529812484262271344e+00 2.721501566200575084e+01
1.134464013796314230e+00 1.357193182856790067e-02 3.631202105634327548e+00 2.837812466756986751e+01
1.151917306316257550e+00 1.370094868105290950e-02 3.733286069084582159e+00 2.953944630373446500e+01
1.169370598836200648e+00 1.382929328417467282e-02 3.836006251610802664e+00 3.070135032973313471e+01
1.186823891356144189e+00 1.395701130093433134e-02 3.939277222393701372e+00 3.185243501745769379e+01
1.204277183876087287e+00 1.408414736501049057e-02 4.043042358772209965e+00 3.299825622183614371e+01
1.221730476396030607e+00 1.421074513997938778e-02 4.147236931978320662e+00 3.413326831520232929e+01
1.239183768915973927e+00 1.433684741540671229e-02 4.251783386342109949e+00 3.524986969970374417e+01
1.256637061435917246e+00 1.446249618252438453e-02 4.356611044728577298e+00 3.634682176322669989e+01
1.274090353955860566e+00 1.458773269708008545e-02 4.461652916567201643e+00 3.742202308273488853e+01
1.291543646475803886e+00 1.471259757451828104e-02 4.566841234863774801e+00 3.847185527896247947e+01
1.308996938995747206e+00 1.483713082620168912e-02 4.672107786572895272e+00 3.949279965451890462e+01
1.326450231515690303e+00 1.496137196228302518e-02 4.777384269258837968e+00 4.048145631713030212e+01
1.343903524035633845e+00 1.508536002355066220e-02 4.882602471204601002e+00 4.143452583931833288e+01
1.361356816555576943e+00 1.520913366735550908e-02 4.987694223825323903e+00 4.234871911378057519e+01
1.378810109075520263e+00 1.533273121992798776e-02 5.092591125788964668e+00 4.322068042160742607e+01
1.396263401595463582e+00 1.545619072959949526e-02 5.197219784774258500e+00 4.404505881965804548e+01
1.413716694115406902e+00 1.557955004700948935e-02 5.301510303707631877e+00 4.482006485709506904e+01
1.431169986635350000e+00 1.570284685256790463e-02 5.405394512581741751e+00 4.554336424604008471e+01
1.448623279155293542e+00 1.582611874768349511e-02 5.508804864589475159e+00 4.621227325619875614e+01
1.466076571675236861e+00 1.594940328452533820e-02 5.611673958933118378e+00 4.682402454476687836e+01
1.483529864195180181e+00 1.607273803851071853e-02 5.713934080457069520e+00 4.737574564884136663e+01
1.500983156715123279e+00 1.619616066592641929e-02 5.815516920875856144e+00 4.786453988994650643e+01
1.518436449235066599e+00 1.631970894540243563e-02 5.916353552533756499e+00 4.828761407807076722e+01
1.535889741755009918e+00 1.644342086410838927e-02 6.016374589992746991e+00 4.864236482042512222e+01
1.553343034274953460e+00 1.656733464310345891e-02 6.115510365234685608e+00 4.892642819664001053e+01
1.570796326794896558e+00 1.669148882839256026e-02 6.213690942508541148e+00 4.913759148080528405e+01
1.588249619314839878e+00 1.681592232999243319e-02 6.310845987319389394e+00 4.927374997964425773e+01
1.605702911834782975e+00 1.694067449198683253e-02 6.406904914016718244e+00 4.933304558841410881e+01
1.623156204354726295e+00 1.706578516423135419e-02 6.501798916564460740e+00 4.931487553256161505e+01
1.640609496874669837e+00 1.719129474629010890e-02 6.595473664897387067e+00 4.922567070667776079e+01
1.658062789394613157e+00 1.731724428791515252e-02 6.687922244545338124e+00 4.909020742170113039e+01
1.675516081914556255e+00 1.744367552263590207e-02 6.779144947289506007e+00 4.891290714293072739e+01
1.692969374434499574e+00 1.757063097700619844e-02 6.869139057022797701e+00 4.869283144526193041e+01
1.710422666954442894e+00 1.769815401780846717e-02 6.957918093514788183e+00 4.843965925265528938e+01
1.727875959474386436e+00 1.782628895135076469e-02 7.045476411711966591e+00 4.814378471611288290e+01
1.745329251994329534e+00 1.795508109962389368e-02 7.131825253614379356e+00 4.781540331123402865e+01
1.762782544514272853e+00 1.808457688441883829e-02 7.216960132423097640e+00 4.744672015495486050e+01
1.780235837034215951e+00 1.821482393505797354e-02 7.300895705053700446e+00 4.704942328543245367e+01
1.797689129554159271e+00 1.834587116243295915e-02 7.383623499800280321e+00 4.661150805042658618e+01
1.815142422074102813e+00 1.847776889421621355e-02 7.465151599920405445e+00 4.614329744884161499e+01
1.832595714594046132e+00 1.861056894826447136e-02 7.545486506459629261e+00 4.564500802606142571e+01
1.850049007113989230e+00 1.874432479019465247e-02 7.624633513478638491e+00 4.511705159941088539e+01
1.867502299633932550e+00 1.887909161536734104e-02 7.702590419015181489e+00 4.455622612704607377e+01
1.884955592153875870e+00 1.901492652615357354e-02 7.779361112439085346e+00 4.396711740303405236e+01
1.902408884673818967e+00 1.915188862987948076e-02 7.854950153189493633e+00 4.335127243738073588e+01
1.919862177193762509e+00 1.929003923558084144e-02 7.929362172272980125e+00 4.270989955400794003e+01
1.937315469713705829e+00 1.942944197554278413e-02 8.002601679418900105e+00 4.204412359798431709e+01
1.954768762233649149e+00 1.957016302049540551e-02 8.074669803695154968e+00 4.135318261020227482e+01
1.972222054753592246e+00 1.971227123716925989e-02 8.145567349227004428e+00 4.063809577949652407e+01
1.989675347273535566e+00 1.985583841613541844e-02 8.215300313796387144e+00 3.990307881189493600e+01
2.007128639793478886e+00 2.000093948492044985e-02 8.283874064091218514e+00 3.914900946638885415e+01
2.024581932313422428e+00 2.014765274037065915e-02 8.351291326779961111e+00 3.837561912453220714e+01
2.042035224833365525e+00 2.029606013454423805e-02 8.417557357728691514e+00 3.758560141063830429e+01
2.059488517353308623e+00 2.044624752248962868e-02 8.482676336730445854e+00 3.677960112410232085e+01
2.076941809873252165e+00 2.059830500694437988e-02 8.546650034945061591e+00 3.595750725734338715e+01
2.094395102393195263e+00 2.075232725807286266e-02 8.609480495915496689e+00 3.512074549690106551e+01
2.111848394913138804e+00 2.090841387414438951e-02 8.671170538451825394e+00 3.427102802406383830e+01
2.129301687433081902e+00 2.106666981215716064e-02 8.731723313869817815e+00 3.340980992410851513e+01
2.146754979953025444e+00 2.122720581342015314e-02 8.791142185818637600e+00 3.253848032300717819e+01
2.164208272472968542e+00 2.139013888713421629e-02 8.849430797536687265e+00 3.165846098187463653e+01
2.181661564992911639e+00 2.155559286812747111e-02 8.906593203159685501e+00 3.077123260145714667e+01
2.199114857512855181e+00 2.172369900523639721e-02 8.962633882902741433e+00 2.987827236554525712e+01
2.216568150032798723e+00 2.189459661416471442e-02 9.017557743060358177e+00 2.898104213095358972e+01
2.234021442552741821e+00 2.206843381008248214e-02 9.071370116006427509e+00 2.808098400559085661e+01
2.251474735072684918e+00 2.224536832848157675e-02 9.124076760194233415e+00 2.717951656313075404e+01
2.268928027592628460e+00 2.242556843156114088e-02 9.175676059850673028e+00 2.627403927475098655e+01
2.286381320112572002e+00 2.260921392131504115e-02 9.226169059663829941e+00 2.536718724919675694e+01
2.303834612632515100e+00 2.279649727635164533e-02 9.275564174496754077e+00 2.446386959748089751e+01
2.321287905152458197e+00 2.298762493229250872e-02 9.323861871593390305e+00 2.356127135177276344e+01
2.338741197672401295e+00 2.318281871849859829e-02 9.371065944462809938e+00 2.266222139056777962e+01
2.356194490192344837e+00 2.338231750695871428e-02 9.417180846984061660e+00 2.176817113205171239e+01
2.373647782712288379e+00 2.358637899200546201e-02 9.462208994320828737e+00 2.087928256672081062e+01
2.391101075232231477e+00 2.379528201519793065e-02 9.506154673752703843e+00 1.999752897485159053e+01
2.408554367752174574e+00 2.400932867923158062e-02 9.549021310142624230e+00 1.912360681861142453e+01
2.426007660272118116e+00 2.422884218404438433e-02 9.590821034388707034e+00 1.826282509920483577e+01
2.443460952792061214e+00 2.445407092361690307e-02 9.631573752461852322e+00 1.742729682187889040e+01
2.460914245312004311e+00 2.468496821295479773e-02 9.671300328942821878e+00 1.663976451563799230e+01
2.478367537831947853e+00 2.492132954889276705e-02 9.710021195084612700e+00 1.590701920163034799e+01
2.495820830351891395e+00 2.516308949101007247e-02 9.747782810750656779e+00 1.522551771281584543e+01
2.513274122871834493e+00 2.541012060856171623e-02 9.784646273602117361e+00 1.460123518026799694e+01
2.530727415391777591e+00 2.566224070378551186e-02 9.820664188415511475e+00 1.402981566524185553e+01
2.548180707911721132e+00 2.591936668209395694e-02 9.855883622474085115e+00 1.349994448691158944e+01
2.565634000431664674e+00 2.618139871887979753e-02 9.890348931563977430e+00 1.300886475999250003e+01
2.583087292951607772e+00 2.644813352464325112e-02 9.924101863080442953e+00 1.255807353630623169e+01
2.600540585471550870e+00 2.671947710940706863e-02 9.957181455533921977e+00 1.213883515326506135e+01
2.617993877991494411e+00 2.699531905268528695e-02 9.989623980902438305e+00 1.174906997720418289e+01
2.635447170511437509e+00 2.727554981768326794e-02 1.002146296716878737e+01 1.138608823990866448e+01
2.652900463031380607e+00 2.755998354880821732e-02 1.005272966767610754e+01 1.105057710831834861e+01
2.670353755551324149e+00 2.784850960877083628e-02 1.008345349711136585e+01 1.073741156704368649e+01
2.687807048071267690e+00 2.814100797056063100e-02 1.011366204804072666e+01 1.044515508364247225e+01
2.705260340591210788e+00 2.843735720782526039e-02 1.014338115243612393e+01 1.017219433982817378e+01
2.722713633111153886e+00 2.873743181465470212e-02 1.017263520031584356e+01 9.917225597902715961e+00
2.740166925631096984e+00 2.904110394409164034e-02 1.020144724258543256e+01 9.679009058530896326e+00
2.757620218151040525e+00 2.934824400577858844e-02 1.022983899108844774e+01 9.456370304352210709e+00
2.775073510670984067e+00 2.965872157619342531e-02 1.025783085498432889e+01 9.248198018814807853e+00
2.792526803190927165e+00 2.997240632891939524e-02 1.028544220167319168e+01 9.053513376429842552e+00
2.809980095710870263e+00 3.028916883614640732e-02 1.031269147071042802e+01 8.871419374831535976e+00
2.827433388230813804e+00 3.060888212035591666e-02 1.033959617428214806e+01 8.701038832595211048e+00
2.844886680750756902e+00 3.093142028860283374e-02 1.036617289739596970e+01 8.541590855479459066e+00
2.862339973270700000e+00 3.125666712404576858e-02 1.039243737239032761e+01 8.392146571567712598e+00
2.879793265790643542e+00 3.158449903853152718e-02 1.041840466621904326e+01 8.252331857883243416e+00
2.897246558310587083e+00 3.191476615208001938e-02 1.044408920941146235e+01 8.122263749558150892e+00
2.914699850830530625e+00 3.224734357061478929e-02 1.046950479607245477e+01 8.000801967089538280e+00
2.932153143350473723e+00 3.258210960364282816e-02 1.049466458388241286e+01 7.887405173064198749e+00
2.949606435870416821e+00 3.291893773477819890e-02 1.051958112152835767e+01 7.781759146738445487e+00
2.967059728390360362e+00 3.325770857863923069e-02 1.054426648941580602e+01 7.683338224386556448e+00
2.984513020910303460e+00 3.359829528743722704e-02 1.056873234466442035e+01 7.591989617518279942e+00
3.001966313430246558e+00 3.394055848244630080e-02 1.059298992112803361e+01 7.507680251253033177e+00
3.019419605950190100e+00 3.428436551422655437e-02 1.061705002939464038e+01 7.429963600700440374e+00
3.036872898470133197e+00 3.462959497879344872e-02 1.064092305679659312e+01 7.358324644615250598e+00
3.054326190990076295e+00 3.497612569336401578e-02 1.066461899896988363e+01 7.292519377768303279e+00
3.071779483510019837e+00 3.532383181267615552e-02 1.068814756119282272e+01 7.232450939861456263e+00
3.089232776029963379e+00 3.567258385354946104e-02 1.071151817868577361e+01 7.178016607329524845e+00
3.106686068549906921e+00 3.602225211123655929e-02 1.073474001661116262e+01 7.129054106478731612e+00
3.124139361069850018e+00 3.637270735551566964e-02 1.075782197007347563e+01 7.085399637259017780e+00
3.141592653589793116e+00 3.672382083069059000e-02 1.078077266411924917e+01 7.046901713697530489e+00
3.159045946109736214e+00 3.707546425559069686e-02 1.080360045908527944e+01 7.013422083605768798e+00
3.176499238629679756e+00 3.742750982357095219e-02 1.082631351469551184e+01 6.984853191700468145e+00
3.193952531149622853e+00 3.777983020251190344e-02 1.084891983234623680e+01 6.961111038608279955e+00
3.211405823669565951e+00 3.813229844254002743e-02 1.087142725585393599e+01 6.942123845289983386e+00
3.228859116189509493e+00 3.848478745384445454e-02 1.089384347145529652e+01 6.927839908538644842e+00
3.246312408709452590e+00 3.883716930213870072e-02 1.091617600780719677e+01 6.918230853778993605e+00
3.263765701229396576e+00 3.918931505559598849e-02 1.093843223598671344e+01 6.913280690741371970e+00
3.281218993749339674e+00 3.954109478484926776e-02 1.096061937601493597e+01 6.912984935428339917e+00
3.298672286269282772e+00 3.989237756299120891e-02 1.098274455076853684e+01 6.917365654678313547e+00
3.316125578789226314e+00 4.024303146557420274e-02 1.100481481256727534e+01 6.926463449312950438e+00
3.333578871309169411e+00 4.059292398720248246e-02 1.102683714336108523e+01 6.940321389279582753e+00
3.351032163829112509e+00 4.094193032298541757e-02 1.104881845473006763e+01 6.958828359604573244e+00
3.368485456349056051e+00 4.128994098624565873e-02 1.107076558788449816e+01 6.981727634509204528e+00
3.385938748868999149e+00 4.163686223566432504e-02 1.109268531366481803e+01 7.008755463966705790e+00
3.403392041388942246e+00 4.198262792110099562e-02 1.111458433471383422e+01 7.039406353744139366e+00
3.420845333908885788e+00 4.232721999142449038e-02 1.113646932417140256e+01 7.072754562379452992e+00
3.438298626428828886e+00 4.267066776976306819e-02 1.115834695898489493e+01 7.107870694981386350e+00
