# angles(rad), pulling distance(m),                                     elastic band force(n), cable force(n)
0.000000000000000000e+00 3.261287463684040032e-04 2.274487254763928046e-02 1.586273007114698264e-02
1.745329251994329547e-02 6.455586795168130046e-04 4.588828900863729798e-02 3.324709656173998468e-02
3.490658503988659095e-02 9.583601186211217204e-04 6.945204482353474484e-02 5.231916546654218764e-02
5.235987755982988295e-02 1.264611202449527749e-03 9.345901885877566651e-02 7.326237710096911160e-02
6.981317007977318190e-02 1.564403198131916490e-03 1.179338342160788228e-01 9.628038301180349978e-02
8.726646259971647390e-02 1.857828867786937097e-03 1.429028392239017342e-01 1.216029160778183543e-01
1.047197551196597659e-01 2.144980161845803576e-03 1.683943268955311601e-01 1.494899029481573383e-01
1.221730476396030718e-01 2.425949655031297159e-03 1.944387342294844612e-01 1.802345706061316555e-01
1.396263401595463638e-01 2.700829469991248254e-03 2.210688706862498909e-01 2.141697524634753325e-01
1.570796326794896558e-01 2.969713440097094745e-03 2.483201800658848268e-01 2.516717545310798720e-01
1.745329251994329478e-01 3.232693007418100447e-03 2.762310387691836455e-01 2.931727955556767129e-01
1.919862177193762398e-01 3.489844734309653206e-03 3.048430955664444553e-01 3.391844989739566385e-01
2.094395102393195318e-01 3.741247926641868768e-03 3.342016540633169219e-01 3.902766197814959148e-01
2.268928027592628516e-01 3.986994806512975109e-03 3.643562184562577633e-01 4.470861667570432130e-01
2.443460952792061436e-01 4.227180831670129119e-03 3.953606060337346295e-01 5.103508188836430870e-01
2.617993877991494078e-01 4.461899748828208716e-03 4.272727154739191513e-01 5.809149864058651414e-01
2.792526803190927276e-01 4.691249170026634899e-03 4.601345838934841614e-01 6.592945415858212366e-01
2.967059728390360474e-01 4.915319629938684140e-03 4.939662909358663034e-01 7.458244540718959037e-01
3.141592653589793116e-01 5.134173054792473198e-03 5.287808859293975372e-01 8.411699472490054008e-01
3.316125578789225758e-01 5.347902289418621745e-03 5.646009936001191720e-01 9.462471719008550552e-01
3.490658503988658956e-01 5.556609016023551957e-03 6.014335219635266183e-01 1.061408878227419139e+00
3.665191429188092154e-01 5.760390328563345583e-03 6.393057782732911587e-01 1.188134083214898551e+00
3.839724354387524796e-01 5.959333201923509848e-03 6.782234225263275018e-01 1.326755637743875171e+00
4.014257279586957439e-01 6.153510310642999227e-03 7.182079628773027080e-01 1.478918676945822686e+00
4.188790204786390636e-01 6.343089330859238983e-03 7.592792439698373697e-01 1.644937885069894801e+00
4.363323129985823834e-01 6.528312767751402908e-03 8.014441939177934238e-01 1.824437279084604624e+00
4.537856055185257032e-01 6.709436259595116282e-03 8.447252436792803687e-01 2.018545188937403534e+00
4.712388980384689674e-01 6.886690937378425748e-03 8.891436415578076735e-01 2.228112484013435868e+00
4.886921905584122872e-01 7.060288942686948968e-03 9.347043079826071743e-01 2.453124453022034412e+00
5.061454830783556069e-01 7.230429253196410909e-03 9.814274588804192678e-01 2.695151026774213143e+00
5.235987755982988157e-01 7.397296959343047096e-03 1.029331310618673001e+00 2.954971673793408193e+00
5.410520681182421354e-01 7.561064377404829763e-03 1.078433603317508371e+00 3.233461397454456154e+00
5.585053606381854552e-01 7.721892682042162497e-03 1.128750948111965080e+00 3.531452425074923962e+00
5.759586531581287749e-01 7.879932855068483982e-03 1.180299155583909521e+00 3.849799996160927051e+00
5.934119456780720947e-01 8.035326425736235081e-03 1.233092976974249799e+00 4.189342590193256832e+00
6.108652381980153034e-01 8.188206388671147307e-03 1.287148038657391025e+00 4.551078198166593758e+00
6.283185307179586232e-01 8.338697867807203651e-03 1.342478927304211922e+00 4.935864306989576455e+00
6.457718232379019430e-01 8.486918800590966330e-03 1.399101254196301936e+00 5.344749023122777665e+00
6.632251157578451517e-01 8.632980539796719643e-03 1.457031441175052233e+00 5.778796300808656028e+00
6.806784082777884715e-01 8.776988277274916025e-03 1.516289370457325481e+00 6.239398650341741792e+00
6.981317007977317912e-01 8.919041715823359737e-03 1.576893503629177351e+00 6.727486843564189911e+00
7.155849933176750000e-01 9.059235254772216028e-03 1.638850023488114704e+00 7.242662164559680704e+00
7.330382858376184307e-01 9.197658628199045783e-03 1.702141777682846913e+00 7.782756360480894031e+00
7.504915783575616395e-01 9.334397119015597211e-03 1.766735801081916302e+00 8.345899753140006538e+00
7.679448708775049592e-01 9.469531872406502723e-03 1.832592781369819068e+00 8.931013203487832897e+00
7.853981633974482790e-01 9.603140358816564595e-03 1.899667471403207131e+00 9.536789932625508115e+00
8.028514559173914877e-01 9.735296438888907042e-03 1.967910932399366875e+00 1.016200335887676331e+01
8.203047484373349185e-01 9.866070743398992759e-03 2.037278281042241623e+00 1.080644957991060906e+01
8.377580409572781273e-01 9.995530949373760896e-03 2.107726030079324353e+00 1.146951322129792494e+01
8.552113334772214470e-01 1.012374182212230980e-02 2.179210862673761628e+00 1.215033642363037458e+01
8.726646259971647668e-01 1.025076556201327468e-02 2.251689632404352270e+00 1.284796798707715659e+01
8.901179185171079755e-01 1.037666199907697796e-02 2.325119365031713237e+00 1.356137610269214022e+01
9.075712110370514063e-01 1.050148861642944721e-02 2.399457615808576083e+00 1.428953902265638654e+01
9.250245035569946150e-01 1.062530082266375554e-02 2.474663258439939284e+00 1.503152607546597963e+01
9.424777960769379348e-01 1.074815214030649425e-02 2.550695499526182353e+00 1.578616321572956416e+01
9.599310885968812546e-01 1.087009421364111550e-02 2.627507072841048341e+00 1.655072335919982152e+01
9.773843811168245743e-01 1.099117697544913820e-02 2.705046805969091750e+00 1.732274721039714649e+01
9.948376736367677831e-01 1.111144886895774897e-02 2.783278679248254228e+00 1.810407224693409844e+01
1.012290966156711214e+00 1.123095686322306969e-02 2.862165532680464697e+00 1.889306520984830939e+01
1.029744258676654312e+00 1.134974650676006357e-02 2.941653941753734625e+00 1.968415637187254674e+01
1.047197551196597631e+00 1.146786215716518419e-02 3.021701081272352596e+00 2.047810998852033393e+01
1.064650843716540951e+00 1.158534704255988548e-02 3.102266582411222551e+00 2.127385672111336135e+01
1.082104136236484271e+00 1.170224326505856470e-02 3.183307805947143354e+00 2.206907579826365406e+01
1.099557428756427591e+00 1.181859192543481540e-02 3.264781600647753912e+00 2.286181422401664420e+01
1.117010721276370910e+00 1.193443327944228825e-02 3.346644296958821485e+00 2.365004519244754988e+01
1.134464013796314230e+00 1.204980674771467461e-02 3.428852193417331051e+00 2.443184991392440963e+01
1.151917306316257550e+00 1.216475093157370554e-02 3.511361828217378189e+00 2.520537989572049042e+01
1.169370598836200648e+00 1.227930376625044687e-02 3.594130162452382482e+00 2.596881756871668046e+01
1.186823891356144189e+00 1.239350260693405925e-02 3.677114927060567862e+00 2.672045660295003700e+01
1.204277183876087287e+00 1.250738422972673923e-02 3.760274107910130503e+00 2.745845263839431993e+01
1.221730476396030607e+00 1.262098486099842536e-02 3.843567223306350478e+00 2.818141806785694925e+01
1.239183768915973927e+00 1.273434032842467832e-02 3.926939843163245403e+00 2.888252946051748893e+01
1.256637061435917246e+00 1.284748610942705246e-02 4.010352070116610435e+00 2.956472561963629886e+01
1.274090353955860566e+00 1.296045733119732465e-02 4.093763669204302680e+00 3.022604948274394587e+01
1.291543646475803886e+00 1.307328881024375292e-02 4.177136958341564288e+00 3.086564585849761144e+01
1.308996938995747206e+00 1.318601519352909958e-02 4.260417441037899877e+00 3.147529536890976587e+01
1.326450231515690303e+00 1.329867098994389450e-02 4.343564061817425603e+00 3.205806406531996089e+01
1.343903524035633845e+00 1.341129057036149694e-02 4.426540132767411428e+00 3.261394748209001193e+01
1.361356816555576943e+00 1.352390821517461539e-02 4.509299042377657329e+00 3.313731808838454640e+01
1.378810109075520263e+00 1.363655824865440784e-02 4.591791515065447804e+00 3.362522179920285481e+01
1.396263401595463582e+00 1.374927506252121741e-02 4.673982269659584077e+00 3.408170587192662282e+01
1.413716694115406902e+00 1.386209311618293027e-02 4.755828338298488944e+00 3.450208898111175415e+01
1.431169986635350000e+00 1.397504699440397895e-02 4.837276788762874702e+00 3.488049327009790801e+01
1.448623279155293542e+00 1.408817153966920518e-02 4.918292227084234192e+00 3.522291290856119161e+01
1.466076571675236861e+00 1.420150187068084172e-02 4.998835934700561090e+00 3.552665701692569655e+01
1.483529864195180181e+00 1.431507338328929721e-02 5.078850722425251263e+00 3.578213876936517579e+01
1.500983156715123279e+00 1.442892182675055250e-02 5.158300427347822570e+00 3.599745718036404440e+01
1.518436449235066599e+00 1.454308343544892870e-02 5.237147874815905269e+00 3.617115654292661020e+01
1.535889741755009918e+00 1.465759494197079772e-02 5.315342506963938618e+00 3.629602515040465960e+01
1.553343034274953460e+00 1.477249358112413431e-02 5.392837699293675513e+00 3.637284112234706868e+01
1.570796326794896558e+00 1.488781720157300419e-02 5.469594537781380161e+00 3.640440552383216044e+01
1.588249619314839878e+00 1.500360438930091467e-02 5.545574309155842485e+00 3.639016340390690374e+01
1.605702911834782975e+00 1.511989447400366796e-02 5.620744295175848393e+00 3.633252750398864350e+01
1.623156204354726295e+00 1.523672754698658996e-02 5.695108964266186291e+00 3.624957238118506808e+01
1.640609496874669837e+00 1.535414462971958389e-02 5.768683952826822114e+00 3.614728333902748858e+01
1.658062789394613157e+00 1.547218776635887402e-02 5.841485650205691549e+00 3.602666640829785649e+01
1.675516081914556255e+00 1.559090002478368507e-02 5.913530163552181307e+00 3.588824005591174426e+01
1.692969374434499574e+00 1.571032557164928414e-02 5.984833509190606193e+00 3.573261027429062153e+01
1.710422666954442894e+00 1.583050988566423248e-02 6.055411618271271834e+00 3.556033956889963576e+01
1.727875959474386436e+00 1.595149979521898881e-02 6.125280392875125379e+00 3.537202703350292410e+01
1.745329251994329534e+00 1.607334349588573214e-02 6.194455734434466621e+00 3.516830077048773262e+01
1.762782544514272853e+00 1.619609076781446111e-02 6.262953577263615124e+00 3.494976328522744780e+01
1.780235837034215951e+00 1.631979312291547898e-02 6.330789886566388525e+00 3.471699633570307952e+01
1.797689129554159271e+00 1.644450381068552486e-02 6.397980733933823494e+00 3.447064198268230228e+01
1.815142422074102813e+00 1.657027799022383480e-02 6.464542156830691333e+00 3.421124478131581270e+01
1.832595714594046132e+00 1.669717299097908669e-02 6.530489492496188930e+00 3.393895583422571605e+01
1.850049007113989230e+00 1.682524833528116839e-02 6.595837738523869120e+00 3.365412989084613571e+01
1.867502299633932550e+00 1.695456589403324110e-02 6.660603001646797416e+00 3.335786030310554651e+01
1.884955592153875870e+00 1.708519022993183756e-02 6.724801580286849045e+00 3.305070989420596561e+01
1.902408884673818967e+00 1.721718864478737759e-02 6.788450096070127060e+00 3.273333043859511804e+01
1.919862177193762509e+00 1.735063138052187273e-02 6.851564682104589465e+00 3.240593549129366835e+01
1.937315469713705829e+00 1.748559201929287404e-02 6.914159374079704712e+00 3.206784438992782071e+01
1.954768762233649149e+00 1.762214754278077292e-02 6.976250323994100278e+00 3.172057771033944107e+01
1.972222054753592246e+00 1.776037867917297161e-02 7.037854538978513652e+00 3.136496706632904363e+01
1.989675347273535566e+00 1.790037029612338848e-02 7.098987906660686242e+00 3.100078757022254550e+01
2.007128639793478886e+00 1.804221151075407689e-02 7.159665082431722283e+00 3.062778740294688617e+01
2.024581932313422428e+00 1.818599627662139881e-02 7.219902651448271591e+00 3.024725057873642697e+01
2.042035224833365525e+00 1.833182363209072407e-02 7.279717167998881244e+00 2.985947057927783632e+01
2.059488517353308623e+00 1.847979813898122450e-02 7.339123135470845938e+00 2.946370421637249493e+01
2.076941809873252165e+00 1.863003047542283186e-02 7.398136790775235561e+00 2.906106000922292765e+01
2.094395102393195263e+00 1.878263774965612323e-02 7.456774796097893621e+00 2.865200249334301574e+01
2.111848394913138804e+00 1.893774432490612225e-02 7.515052317539907989e+00 2.823598044553483533e+01
2.129301687433081902e+00 1.909548219622097393e-02 7.572984982794367603e+00 2.781343505704877828e+01
2.146754979953025444e+00 1.925599201246660022e-02 7.630589061677762075e+00 2.738480826387607792e+01
2.164208272472968542e+00 1.941942358384070658e-02 7.687880698161071891e+00 2.695019466452286494e+01
2.181661564992911639e+00 1.958593686203525044e-02 7.744875690909569954e+00 2.650954558264525218e+01
2.199114857512855181e+00 1.975570285981902499e-02 7.801589531363442909e+00 2.606282234042541646e+01
2.216568150032798723e+00 1.992890561488243339e-02 7.858037991405591782e+00 2.561010899654374029e+01
2.234021442552741821e+00 2.010574186184820727e-02 7.914237107398672144e+00 2.515169467951475113e+01
2.251474735072684918e+00 2.028642115314569991e-02 7.970202825721714568e+00 2.468783904998907275e+01
2.268928027592628460e+00 2.047117748819309024e-02 8.025951023444049426e+00 2.421742693964820248e+01
2.286381320112572002e+00 2.066024742646106055e-02 8.081497577934944943e+00 2.374250236145734760e+01
2.303834612632515100e+00 2.085380602074100517e-02 8.136858361222774505e+00 2.327268670529403849e+01
2.321287905152458197e+00 2.105197205110569472e-02 8.192049234015474468e+00 2.281553232680812116e+01
2.338741197672401295e+00 2.125482590166332883e-02 8.247086047640806328e+00 2.237538683679647278e+01
2.356194490192344837e+00 2.146243456014932521e-02 8.301984646062150475e+00 2.195319426983735056e+01
2.373647782712288379e+00 2.167487975471264067e-02 8.356760871345384700e+00 2.154681903103713836e+01
2.391101075232231477e+00 2.189221475963182631e-02 8.411430569153312220e+00 2.115859649571722301e+01
2.408554367752174574e+00 2.211442901304849426e-02 8.466009602708636450e+00 2.079374365421643844e+01
2.426007660272118116e+00 2.234145839778427928e-02 8.520513849342485457e+00 2.045568633470795206e+01
2.443460952792061214e+00 2.257322042021409764e-02 8.574959181145166198e+00 2.014421918298793912e+01
2.460914245312004311e+00 2.280962647559797024e-02 8.629361463934404952e+00 1.985807689609456972e+01
2.478367537831947853e+00 2.305061384078727418e-02 8.683736563276129417e+00 1.959351843672772020e+01
2.495820830351891395e+00 2.329612470762522716e-02 8.738100344879713433e+00 1.934888605532827199e+01
2.513274122871834493e+00 2.354610363985025143e-02 8.792468673528960110e+00 1.912288456574063034e+01
2.530727415391777591e+00 2.380048637132864756e-02 8.846857413215445831e+00 1.891517643884186839e+01
2.548180707911721132e+00 2.405916483498004438e-02 8.901282427646819428e+00 1.872797672230117527e+01
2.565634000431664674e+00 2.432207431262947347e-02 8.955759580285496568e+00 1.855712034470954208e+01
2.583087292951607772e+00 2.458915962626231563e-02 9.010304734321303854e+00 1.840117874540741738e+01
2.600540585471550870e+00 2.486036553230483795e-02 9.064933752798346234e+00 1.825950034425664370e+01
2.617993877991494411e+00 2.513562737329539179e-02 9.119662498810320983e+00 1.813210617266251745e+01
2.635447170511437509e+00 2.541483939259873634e-02 9.174506835481887279e+00 1.802106309521304439e+01
2.652900463031380607e+00 2.569793587774099955e-02 9.229482625955775177e+00 1.792315092757038997e+01
2.670353755551324149e+00 2.598487668878324275e-02 9.284605734430986246e+00 1.783630314522438454e+01
2.687807048071267690e+00 2.627559647187132502e-02 9.339892027265443986e+00 1.776170854892088968e+01
2.705260340591210788e+00 2.656999056277028690e-02 9.395357370582697598e+00 1.770133091178515983e+01
2.722713633111153886e+00 2.686799885081351744e-02 9.451017628651618097e+00 1.765206208454052472e+01
2.740166925631096984e+00 2.716956960375003366e-02 9.506888677041308355e+00 1.761310843767995848e+01
2.757620218151040525e+00 2.747462916052785531e-02 9.562986409217572259e+00 1.758547924398375528e+01
2.775073510670984067e+00 2.778309783402615335e-02 9.619326687367834694e+00 1.756922461650053080e+01
2.792526803190927165e+00 2.809490985019890905e-02 9.675925334932683697e+00 1.756328362894870665e+01
2.809980095710870263e+00 2.841000596850663112e-02 9.732798343444491351e+00 1.756713240401955289e+01
2.827433388230813804e+00 2.872831240351250010e-02 9.789961838220428092e+00 1.758143634090856366e+01
2.844886680750756902e+00 2.904975314872541500e-02 9.847431262441091349e+00 1.760592622849297229e+01
2.862339973270700000e+00 2.937425753312504842e-02 9.905221737732182063e+00 1.764005355879101700e+01
2.879793265790643542e+00 2.970176269825684778e-02 9.963350773578040886e+00 1.768399512200364754e+01
2.897246558310587083e+00 3.003220605820530742e-02 1.002183549490346870e+01 1.773751048228446692e+01
2.914699850830530625e+00 3.036551885354589128e-02 1.008068293068770949e+01 1.779776683396682913e+01
2.932153143350473723e+00 3.070162971105935834e-02 1.013988966686378568e+01 1.786165959653545343e+01
2.949606435870416821e+00 3.104046635392539860e-02 1.019944444555958007e+01 1.792679952314068359e+01
2.967059728390360362e+00 3.138195557122224616e-02 1.025933103946850089e+01 1.799167764655264179e+01
2.984513020910303460e+00 3.172602401151584928e-02 1.031953268611505159e+01 1.805608383602091394e+01
3.001966313430246558e+00 3.207260221803433925e-02 1.038003277602122054e+01 1.811980396824979778e+01
3.019419605950190100e+00 3.242162533906554206e-02 1.044081560626858085e+01 1.818281610584397612e+01
3.036872898470133197e+00 3.277302786085396769e-02 1.050186648900078268e+01 1.824540746680405690e+01
3.054326190990076295e+00 3.312674069221760442e-02 1.056317101985697526e+01 1.830779622072345703e+01
3.071779483510019837e+00 3.348269264129945938e-02 1.062471434524943348e+01 1.836990228142419213e+01
3.089232776029963379e+00 3.384081334213174391e-02 1.068648113073461126e+01 1.843148374443197568e+01
3.106686068549906921e+00 3.420103358319957765e-02 1.074845569494155306e+01 1.849232168678095789e+01
3.124139361069850018e+00 3.456328490117975549e-02 1.081062235034502450e+01 1.855231992248376116e+01
3.141592653589793116e+00 3.492749896959831263e-02 1.087296545666818837e+01 1.861142938427486015e+01
3.159045946109736214e+00 3.529360754833103797e-02 1.093546942088259932e+01 1.866960320123023820e+01
3.176499238629679756e+00 3.566154247176908654e-02 1.099811869720820745e+01 1.872679469741236247e+01
3.193952531149622853e+00 3.603123546726857279e-02 1.106089778711336002e+01 1.878296600320261689e+01
3.211405823669565951e+00 3.640261801306899497e-02 1.112379123931479619e+01 1.883808597145462471e+01
3.228859116189509493e+00 3.677562133450162918e-02 1.118678364977765050e+01 1.889212312424970008e+01
3.246312408709452590e+00 3.715017640398953630e-02 1.124985955879508204e+01 1.894501438625808021e+01
3.263765701229396576e+00 3.752621394104754121e-02 1.131300316371765291e+01 1.899660889831281452e+01
3.281218993749339674e+00 3.790366441228226052e-02 1.137619871367644819e+01 1.904687340300773712e+01
3.298672286269282772e+00 3.828245803139207482e-02 1.143943063399394688e+01 1.909581180448954285e+01
3.316125578789226314e+00 3.866252475916714948e-02 1.150268352618401657e+01 1.914342792481393118e+01
3.333578871309169411e+00 3.904379390161632352e-02 1.156594216890672300e+01 1.918974608630679413e+01
3.351032163829112509e+00 3.942619321451087955e-02 1.162919164080679835e+01 1.923487320984255078e+01
3.368485456349056051e+00 3.980965134965642332e-02 1.169241756311898150e+01 1.927886819265890139e+01
3.385938748868999149e+00 4.019409856692905680e-02 1.175560564654446694e+01 1.932161703707120992e+01
3.403392041388942246e+00 4.057946673427541284e-02 1.181873867481006357e+01 1.936207569915512039e+01
3.420845333908885788e+00 4.096568932771264132e-02 1.188179757892592825e+01 1.939951590054705477e+01
3.438298626428828886e+00 4.135270115057126245e-02 1.194477016136858616e+01 1.943591847374058901e+01
