# angles(rad), pulling distance(m),                                     elastic band force(n), cable force(n)
0.000000000000000000e+00 3.047099044967447679e-04 2.128724481271004193e-02 1.487141655157755461e-02
1.745329251994329547e-02 6.039989586892983162e-04 4.289607452898756140e-02 3.097119513757025724e-02
3.490658503988659095e-02 8.981329888984024550e-04 6.484436508380603259e-02 4.838688555317147144e-02
5.235987755982988295e-02 1.187375991070890565e-03 8.715030686336298904e-02 6.720887476494331880e-02
6.981317007977318190e-02 1.471956836382206507e-03 1.098326639860806170e-01 8.754151058713804945e-02
8.726646259971647390e-02 1.752017434578107685e-03 1.329114968878745418e-01 1.095278038811050014e-01
1.047197551196597659e-01 2.027614053653336180e-03 1.564082187364320697e-01 1.333499816801133608e-01
1.221730476396030718e-01 2.298762039048528501e-03 1.803456601004053417e-01 1.592124557963636999e-01
1.396263401595463638e-01 2.565514694428212492e-03 2.047482464639253930e-01 1.873041061204656077e-01
1.570796326794896558e-01 2.827926343900009302e-03 2.296421458688106543e-01 2.178519318744869537e-01
1.745329251994329478e-01 3.086014624094496773e-03 2.550554488351201576e-01 2.511466770041037577e-01
1.919862177193762398e-01 3.339826475020683111e-03 2.810183689599420886e-01 2.874592908207643238e-01
2.094395102393195318e-01 3.589414270562992556e-03 3.075634697049567379e-01 3.271114787910504584e-01
2.268928027592628516e-01 3.834814065223283129e-03 3.347259230848888545e-01 3.704965317283235304e-01
2.443460952792061436e-01 4.076056905903149147e-03 3.625438027080279957e-01 4.180517785906144868e-01
2.617993877991494078e-01 4.313196618709243604e-03 3.910584244201021353e-01 4.702241943245006883e-01
2.792526803190927276e-01 4.546282847801847403e-03 4.203147241703519277e-01 5.275667124412536380e-01
2.967059728390360474e-01 4.775329413874930019e-03 4.503616518870308671e-01 5.907961962763528252e-01
3.141592653589793116e-01 5.000388014226839033e-03 4.812465536546532419e-01 6.604169986123650249e-01
3.316125578789225758e-01 5.221512078410320973e-03 5.130089813489586703e-01 7.368899778861252026e-01
3.490658503988658956e-01 5.438726436292237211e-03 5.456805819001101510e-01 8.207679351496769415e-01
3.665191429188092154e-01 5.652076115623390004e-03 5.792962885092128866e-01 9.127482232603643109e-01
3.839724354387524796e-01 5.861608515321804248e-03 6.138951891445263431e-01 1.013690421160632127e+00
4.014257279586957439e-01 6.067361459230647715e-03 6.495048269052023926e-01 1.124097238684064859e+00
4.188790204786390636e-01 6.269372318712516934e-03 6.861681964358256058e-01 1.245340879723638494e+00
4.363323129985823834e-01 6.467685014523959219e-03 7.239119728127475506e-01 1.377782269895611700e+00
4.537856055185257032e-01 6.662344535040687701e-03 7.627782013101489511e-01 1.522982887570064392e+00
4.712388980384689674e-01 6.853385660484033817e-03 8.027955819514527303e-01 1.681615741404078657e+00
4.886921905584122872e-01 7.040848689158564142e-03 8.440041827713443690e-01 1.855311508837716783e+00
5.061454830783556069e-01 7.224780043239333212e-03 8.864344805230218727e-01 2.044875879586537160e+00
5.235987755982988157e-01 7.405221128971403027e-03 9.301245950754097880e-01 2.252106272912747009e+00
5.410520681182421354e-01 7.582205331434071875e-03 9.751074901336118650e-01 2.478365712239150032e+00
5.585053606381854552e-01 7.755777691985432654e-03 1.021417774195436445e+00 2.725211958777859156e+00
5.759586531581287749e-01 7.926036530374928890e-03 1.069093667625388600e+00 2.993676936039111780e+00
5.934119456780720947e-01 8.093125553899379113e-03 1.118162706041401888e+00 3.283708745240838223e+00
6.108652381980153034e-01 8.257215349269620211e-03 1.168672338430861490e+00 3.597372406046531523e+00
6.283185307179586232e-01 8.418464554127137039e-03 1.220642084261757132e+00 3.934063360227555872e+00
6.457718232379019430e-01 8.577014968922909779e-03 1.274114749392139201e+00 4.297075565502888495e+00
6.632251157578451517e-01 8.733001468218867108e-03 1.329131541283508966e+00 4.687877074817179412e+00
6.806784082777884715e-01 8.886552317204993862e-03 1.385713300279561189e+00 5.106197491693868606e+00
6.981317007977317912e-01 9.037787947752800102e-03 1.443900409596387657e+00 5.555330491331407217e+00
7.155849933176750000e-01 9.186821663572203658e-03 1.503730083640812287e+00 6.036733383474553349e+00
7.330382858376184307e-01 9.333760756162594319e-03 1.565233520089430064e+00 6.551506384922541670e+00
7.504915783575616395e-01 9.478706834628600544e-03 1.628391895091652053e+00 7.095506622133142649e+00
7.679448708775049592e-01 9.621756301304310033e-03 1.693151527864773076e+00 7.665031804860995557e+00
7.853981633974482790e-01 9.763000556070251454e-03 1.759459741079325790e+00 8.259920507721888683e+00
8.028514559173914877e-01 9.902526598399104610e-03 1.827268341920502692e+00 8.880385880577870594e+00
8.203047484373349185e-01 1.004041720463940551e-02 1.896525288350370930e+00 9.525489362870290577e+00
8.377580409572781273e-01 1.017675131641220150e-02 1.967174079989328694e+00 1.019396172297188308e+01
8.552113334772214470e-01 1.031160433487742639e-02 2.039155722272514737e+00 1.088457488240683446e+01
8.726646259971647668e-01 1.044504825524719682e-02 2.112415270811420775e+00 1.159697561623736739e+01
8.901179185171079755e-01 1.057715208101613069e-02 2.186898546494195905e+00 1.233025360020206129e+01
9.075712110370514063e-01 1.070798191319033942e-02 2.262550823221619378e+00 1.308318738499186118e+01
9.250245035569946150e-01 1.083760116483231326e-02 2.339316827907103047e+00 1.385442396072251015e+01
9.424777960769379348e-01 1.096607085055705151e-02 2.417141306220098596e+00 1.464257969529283265e+01
9.599310885968812546e-01 1.109344961993519521e-02 2.495972286501774828e+00 1.544683961553424822e+01
9.773843811168245743e-01 1.121979398928858035e-02 2.575761066706695246e+00 1.626640226736348538e+01
9.948376736367677831e-01 1.134515854201223646e-02 2.656451889311437498e+00 1.709823738062221565e+01
1.012290966156711214e+00 1.146959594784058289e-02 2.737982318114866587e+00 1.793904903161059750e+01
1.029744258676654312e+00 1.159315716628583209e-02 2.820300899625391988e+00 1.878932341484598822e+01
1.047197551196597631e+00 1.171589161062731865e-02 2.903358779299255676e+00 1.964785235594885293e+01
1.064650843716540951e+00 1.183784715832750765e-02 2.987102923669314514e+00 2.051176704998710676e+01
1.082104136236484271e+00 1.195907030292388089e-02 3.071478552126751804e+00 2.137858525219167305e+01
1.099557428756427591e+00 1.207960631773382330e-02 3.156429736024009447e+00 2.224583610023513813e+01
1.117010721276370910e+00 1.219949926456268333e-02 3.241900329722835483e+00 2.311121323002908312e+01
1.134464013796314230e+00 1.231879208001401826e-02 3.327834633360855943e+00 2.397253772227501045e+01
1.151917306316257550e+00 1.243752675157439036e-02 3.414177894437863348e+00 2.482773139713496491e+01
1.169370598836200648e+00 1.255574433907695464e-02 3.500876676933665888e+00 2.567483840350876534e+01
1.186823891356144189e+00 1.267348500287616281e-02 3.587878982844949771e+00 2.651197426324000617e+01
1.204277183876087287e+00 1.279078816644454650e-02 3.675134782016563406e+00 2.733744024570190234e+01
1.221730476396030607e+00 1.290769257457427197e-02 3.762588672697159353e+00 2.814718655373238576e+01
1.239183768915973927e+00 1.302423629638610816e-02 3.850176600269898497e+00 2.893583489217595783e+01
1.256637061435917246e+00 1.314045682190016599e-02 3.937852532525694560e+00 2.970687753715893464e+01
1.274090353955860566e+00 1.325639117819069589e-02 4.025568133765721868e+00 3.045733296703507165e+01
1.291543646475803886e+00 1.337207593627995524e-02 4.113253261960394092e+00 3.117706649771986704e+01
1.308996938995747206e+00 1.348754723642087323e-02 4.200867443754876973e+00 3.187420280732139943e+01
1.326450231515690303e+00 1.360284092265070383e-02 4.288351116041120292e+00 3.253957054822842565e+01
1.343903524035633845e+00 1.371799258737597255e-02 4.375647066472494906e+00 3.317158030943780034e+01
1.361356816555576943e+00 1.383303757258352688e-02 4.462712890108583075e+00 3.377372535862423319e+01
1.378810109075520263e+00 1.394801104161084472e-02 4.549476752729384899e+00 3.433228372682747676e+01
1.396263401595463582e+00 1.406294809087768952e-02 4.635903242590099893e+00 3.485950327998768472e+01
1.413716694115406902e+00 1.417788375955466272e-02 4.721920668409665289e+00 3.533867819243611308e+01
1.431169986635350000e+00 1.429285304230404861e-02 4.807487622461213306e+00 3.578017211703588885e+01
1.448623279155293542e+00 1.440789100565970787e-02 4.892543707177064327e+00 3.617419849020495093e+01
1.466076571675236861e+00 1.452303285035871569e-02 4.977034072573079726e+00 3.652116469728112946e+01
1.483529864195180181e+00 1.463831391203367430e-02 5.060914042387898881e+00 3.682385562234112797e+01
1.500983156715123279e+00 1.475376971024359822e-02 5.144113003679086304e+00 3.706915246408150466e+01
1.518436449235066599e+00 1.486943607626053238e-02 5.226593517202561934e+00 3.727030874422191431e+01
1.535889741755009918e+00 1.498534917362451604e-02 5.308290746510923697e+00 3.741360175989142789e+01
1.553343034274953460e+00 1.510154550530008050e-02 5.389149437188363478e+00 3.750200725551376735e+01
1.570796326794896558e+00 1.521806202582756326e-02 5.469127090836964022e+00 3.754042347393723844e+01
1.588249619314839878e+00 1.533493623032564958e-02 5.548160500733565037e+00 3.751812000857601248e+01
1.605702911834782975e+00 1.545220615697011357e-02 5.626193844652083165e+00 3.743762205659341902e+01
1.623156204354726295e+00 1.556991043720644917e-02 5.703210540995998556e+00 3.731745638640861529e+01
1.640609496874669837e+00 1.568808844868320104e-02 5.779223077707616341e+00 3.717217787551811625e+01
1.658062789394613157e+00 1.580678034426287112e-02 5.854252085289143537e+00 3.700663149292203968e+01
1.675516081914556255e+00 1.592602706566468782e-02 5.928314810353505493e+00 3.682006052096819104e+01
1.692969374434499574e+00 1.604587049550279532e-02 6.001430075246410922e+00 3.661411812734706217e+01
1.710422666954442894e+00 1.616635355234828306e-02 6.073617795325810143e+00 3.639023052349311627e+01
1.727875959474386436e+00 1.628752019470900911e-02 6.144897652302477198e+00 3.614917581758031417e+01
1.745329251994329534e+00 1.640941553983328235e-02 6.215289262602230025e+00 3.589179055420850517e+01
1.762782544514272853e+00 1.653208603114468891e-02 6.284812200775668600e+00 3.561888481859985234e+01
1.780235837034215951e+00 1.665557945119577887e-02 6.353486117249945941e+00 3.533133787662512049e+01
1.797689129554159271e+00 1.677994501628496046e-02 6.421330632799353566e+00 3.502995910905433874e+01
1.815142422074102813e+00 1.690523359974833995e-02 6.488364465529991243e+00 3.471504954837964618e+01
1.832595714594046132e+00 1.703149776428516601e-02 6.554606058302455907e+00 3.438723464339526004e+01
1.850049007113989230e+00 1.715879185838129622e-02 6.620075086765848660e+00 3.404791772648615478e+01
1.867502299633932550e+00 1.728717228393992708e-02 6.684791440586193900e+00 3.369791977256058857e+01
1.884955592153875870e+00 1.741669754305313900e-02 6.748775537886994691e+00 3.333823175756019452e+01
1.902408884673818967e+00 1.754742837642585609e-02 6.812047107585712524e+00 3.296918578723889937e+01
1.919862177193762509e+00 1.767942806593821026e-02 6.874623341649058084e+00 3.259007963682419273e+01
1.937315469713705829e+00 1.781276248246780811e-02 6.936524159276292067e+00 3.220297715518496773e+01
1.954768762233649149e+00 1.794750033402891035e-02 6.997770003900677160e+00 3.180875525402998250e+01
1.972222054753592246e+00 1.808371345871976829e-02 7.058380071958697322e+00 3.140731831177972921e+01
1.989675347273535566e+00 1.822147690084739008e-02 7.118373258733559972e+00 3.099907274738109564e+01
2.007128639793478886e+00 1.836086933214626030e-02 7.177769087413874871e+00 3.058484159077578113e+01
2.024581932313422428e+00 1.850197323903416888e-02 7.236587260294544244e+00 3.016520590604029906e+01
2.042035224833365525e+00 1.864487521086179156e-02 7.294846772081971409e+00 2.974026222802828912e+01
2.059488517353308623e+00 1.878966638572209316e-02 7.352569749230538854e+00 2.931202236790811710e+01
2.076941809873252165e+00 1.893644263807496217e-02 7.409782251295888855e+00 2.888288640432605803e+01
2.094395102393195263e+00 1.908530518217505662e-02 7.466510302193728243e+00 2.845313299007512953e+01
2.111848394913138804e+00 1.923636081334627324e-02 7.522779076671712417e+00 2.802262689784453187e+01
2.129301687433081902e+00 1.938972257042750197e-02 7.578612824159559835e+00 2.759112589641016555e+01
2.146754979953025444e+00 1.954551011358332882e-02 7.634034963810503172e+00 2.715843277926788701e+01
2.164208272472968542e+00 1.970385045807007685e-02 7.689068159843335692e+00 2.672433211649905616e+01
2.181661564992911639e+00 1.986487848764766084e-02 7.743734374088429462e+00 2.628863083411491530e+01
2.199114857512855181e+00 2.002873784154090078e-02 7.798054901845639542e+00 2.585110020780057027e+01
2.216568150032798723e+00 2.019558155767137500e-02 7.852050434160682713e+00 2.541154397601157910e+01
2.234021442552741821e+00 2.036557312202983555e-02 7.905741091767118256e+00 2.496973539158262057e+01
2.251474735072684918e+00 2.053888738832856248e-02 7.959146477145526255e+00 2.452546428939173140e+01
2.268928027592628460e+00 2.071571186420003569e-02 8.012285704586350477e+00 2.407849197790656604e+01
2.286381320112572002e+00 2.089624764447031713e-02 8.065177447400136757e+00 2.362862866611808244e+01
2.303834612632515100e+00 2.108071117407598477e-02 8.117839965230659871e+00 2.317563221457277933e+01
2.321287905152458197e+00 2.126933709880681270e-02 8.170291146589450548e+00 2.271911579998473130e+01
2.338741197672401295e+00 2.146237411678427603e-02 8.222548533325968023e+00 2.225940408569559281e+01
2.356194490192344837e+00 2.166010122947455846e-02 8.274629360255371324e+00 2.179516677065176111e+01
2.373647782712288379e+00 2.186275030769274305e-02 8.326550576683242610e+00 2.133365907167456754e+01
2.391101075232231477e+00 2.207026774702794750e-02 8.378328884214598204e+00 2.090502325758578550e+01
2.408554367752174574e+00 2.228259043977161638e-02 8.429980755450500851e+00 2.050766570803345346e+01
2.426007660272118116e+00 2.249967314846559527e-02 8.481522470716450712e+00 2.013758805744685532e+01
2.443460952792061214e+00 2.272145874297831422e-02 8.532970134428705222e+00 1.979395365633745740e+01
2.460914245312004311e+00 2.294789668450605141e-02 8.584339710902499476e+00 1.947438191148825481e+01
2.478367537831947853e+00 2.317892889913899385e-02 8.635647039375566436e+00 1.917793065917814133e+01
2.495820830351891395e+00 2.341446437502315431e-02 8.686907868490191476e+00 1.890577621522203700e+01
2.513274122871834493e+00 2.365444174241821199e-02 8.738137871363933940e+00 1.865404363421426126e+01
2.530727415391777591e+00 2.389880850159344441e-02 8.789352678039543676e+00 1.842087687084914904e+01
2.548180707911721132e+00 2.414750985550419976e-02 8.840567892048644794e+00 1.820543271814047159e+01
2.565634000431664674e+00 2.440049397842048579e-02 8.891799120190151839e+00 1.800657622556197168e+01
2.583087292951607772e+00 2.465770454456345934e-02 8.943061991775271835e+00 1.782380270518537557e+01
2.600540585471550870e+00 2.491906783333577846e-02 8.994372185503031858e+00 1.765752877787548059e+01
2.617993877991494411e+00 2.518450929393221613e-02 9.045745452223060923e+00 1.750704252283584950e+01
2.635447170511437509e+00 2.545397329683511678e-02 9.097197638825031518e+00 1.737043558417312994e+01
2.652900463031380607e+00 2.572741066045174801e-02 9.148744714697979674e+00 1.724676656157192767e+01
2.670353755551324149e+00 2.600476945090167760e-02 9.200402793877508145e+00 1.713575168245784397e+01
2.687807048071267690e+00 2.628598720811305134e-02 9.252188166096917854e+00 1.703761571731815749e+01
2.705260340591210788e+00 2.657097864335734860e-02 9.304117315950307443e+00 1.695331306849070074e+01
2.722713633111153886e+00 2.685968586037553937e-02 9.356206954613304205e+00 1.688081941821720378e+01
2.740166925631096984e+00 2.715207394383604630e-02 9.408474043892404381e+00 1.681852239024771123e+01
2.757620218151040525e+00 2.744808670552166541e-02 9.460935843388362798e+00 1.676744328297280973e+01
2.775073510670984067e+00 2.774762506472734647e-02 9.513609918401906285e+00 1.672976388801657066e+01
2.792526803190927165e+00 2.805064074696905080e-02 9.566514143429289518e+00 1.670240342768553532e+01
2.809980095710870263e+00 2.835708982360846467e-02 9.619666773217220523e+00 1.668500986484317394e+01
2.827433388230813804e+00 2.866690015175588774e-02 9.673086630337195402e+00 1.667907292799674224e+01
2.844886680750756902e+00 2.898001252564358365e-02 9.726792934610251962e+00 1.668378973532877652e+01
2.862339973270700000e+00 2.929636588292035618e-02 9.780804809190483340e+00 1.669903576163151016e+01
2.879793265790643542e+00 2.961589717586632711e-02 9.835142213390803079e+00 1.672500032436641249e+01
2.897246558310587083e+00 2.993855898575851354e-02 9.889827906838863925e+00 1.676157762048693201e+01
2.914699850830530625e+00 3.026429142213780954e-02 9.944880113007210198e+00 1.680789289474503079e+01
2.932153143350473723e+00 3.059301402585601695e-02 1.000030096554903025e+01 1.685996639466321767e+01
2.949606435870416821e+00 3.092466343548517377e-02 1.005608142731337118e+01 1.691342873736981645e+01
2.967059728390360362e+00 3.125918921918731386e-02 1.011220779986148699e+01 1.696615238376789492e+01
2.984513020910303460e+00 3.159653354381299073e-02 1.016866444566137240e+01 1.701788484224820763e+01
3.001966313430246558e+00 3.193663442449375806e-02 1.022543622114738326e+01 1.706894049293533655e+01
3.019419605950190100e+00 3.227943123763587357e-02 1.028250841320165954e+01 1.711933344942347901e+01
3.036872898470133197e+00 3.262486458015124990e-02 1.033986642584805793e+01 1.716899083618332611e+01
3.054326190990076295e+00 3.297287583604124189e-02 1.039749574254266662e+01 1.721785042398850507e+01
3.071779483510019837e+00 3.332340628214892908e-02 1.045538187266703822e+01 1.726587810849563098e+01
3.089232776029963379e+00 3.367639570601591720e-02 1.051351031595281249e+01 1.731309628034484760e+01
3.106686068549906921e+00 3.403178236932213885e-02 1.057186656175956152e+01 1.735952716893613967e+01
3.124139361069850018e+00 3.438950347858505535e-02 1.063043608124913320e+01 1.740516612302452515e+01
3.141592653589793116e+00 3.474949534660669304e-02 1.068920431309372177e+01 1.744999521123381214e+01
3.159045946109736214e+00 3.511169390644881122e-02 1.074815666195365793e+01 1.749397019725661551e+01
3.176499238629679756e+00 3.547603657222190426e-02 1.080727849847739996e+01 1.753695662564715008e+01
3.193952531149622853e+00 3.584246266017344917e-02 1.086655515930154792e+01 1.757880035522989104e+01
3.211405823669565951e+00 3.621091337382399689e-02 1.092597194705083119e+01 1.761934858805142667e+01
3.228859116189509493e+00 3.658133087771558989e-02 1.098551413033811208e+01 1.765849315924976537e+01
3.246312408709452590e+00 3.695365684157309732e-02 1.104516694376438934e+01 1.769619491834936653e+01
3.263765701229396576e+00 3.732783231268587548e-02 1.110491560633672137e+01 1.773242520371504582e+01
3.281218993749339674e+00 3.770379771590779555e-02 1.116474537828738178e+01 1.776717123824885647e+01
3.298672286269282772e+00 3.808149285365722975e-02 1.122464151208165895e+01 1.780040468104882834e+01
3.316125578789226314e+00 3.846085690591704437e-02 1.128458923556531879e+01 1.783209112963239562e+01
3.333578871309169411e+00 3.884182843023460674e-02 1.134457375196460838e+01 1.786219512040010216e+01
3.351032163829112509e+00 3.922434536172179215e-02 1.140458024009351767e+01 1.789068018849989272e+01
3.368485456349056051e+00 3.960834472838884596e-02 1.146459397414428949e+01 1.791755803495750143e+01
3.385938748868999149e+00 3.999376222223780669e-02 1.152460064421580377e+01 1.794295587512775469e+01
3.403392041388942246e+00 4.038053475362821804e-02 1.158458633820777273e+01 1.796687703258387003e+01
3.420845333908885788e+00 4.076860116103509651e-02 1.164453679950503151e+01 1.798906938088302354e+01
3.438298626428828886e+00 4.115790221104893148e-02 1.170443708645579761e+01 1.800917670401812032e+01
