# angles(rad), pulling distance(m),                                     elastic band force(n), cable force(n)
0.000000000000000000e+00 3.342105095576564729e-04 2.245968751994311535e-02 1.509340816843658326e-02
1.745329251994329547e-02 6.618652821046191580e-04 4.530973989391602619e-02 3.159819469678798454e-02
3.490658503988659095e-02 9.831608933090517973e-04 6.857265682040285248e-02 4.964898253859230393e-02
5.235987755982988295e-02 1.298221433843527737e-03 9.227112297411035891e-02 6.940520323671747760e-02
6.981317007977318190e-02 1.607107212535474226e-03 1.164286383954473286e-01 9.105717457870840525e-02
8.726646259971647390e-02 1.909871041659311685e-03 1.410708947674374769e-01 1.148190378469334805e-01
1.047197551196597659e-01 2.206601929981922509e-03 1.662258915852145025e-01 1.409159591539426437e-01
1.221730476396030718e-01 2.497384790204914586e-03 1.919232966974143972e-01 1.696087142797980396e-01
1.396263401595463638e-01 2.782306454700591864e-03 2.181940320695164304e-01 2.011822332435228844e-01
1.570796326794896558e-01 3.061427150295945206e-03 2.450687455253324210e-01 2.359607301393970291e-01
1.745329251994329478e-01 3.334805896435726145e-03 2.725761153204064313e-01 2.742660908097601102e-01
1.919862177193762398e-01 3.602529217450602377e-03 3.007437693354756414e-01 3.164179500581777438e-01
2.094395102393195318e-01 3.864680691258263849e-03 3.295996783871812941e-01 3.628016354388301501e-01
2.268928027592628516e-01 4.121342396144846154e-03 3.591719797211407883e-01 4.138343123576607163e-01
2.443460952792061436e-01 4.372595041633145670e-03 3.894886630555200457e-01 4.699653783639405336e-01
2.617993877991494078e-01 4.618482685633351452e-03 4.205781908923871271e-01 5.317704119088269010e-01
2.792526803190927276e-01 4.859088944901793217e-03 4.524697966683312589e-01 5.997345382760241872e-01
2.967059728390360474e-01 5.094493824564826426e-03 4.851911194431716146e-01 6.744165732465577934e-01
3.141592653589793116e-01 5.324777423891566969e-03 5.187678725180616679e-01 7.563951931292574038e-01
3.316125578789225758e-01 5.550018291213899661e-03 5.532274153938041561e-01 8.463812125850722623e-01
3.490658503988658956e-01 5.770294098719631892e-03 5.885991784252175840e-01 9.451691901844305743e-01
3.665191429188092154e-01 5.985681303440168466e-03 6.249136275693101261e-01 1.053609204746432715e+00
3.839724354387524796e-01 6.196254768015683166e-03 6.621988407222995088e-01 1.172523089543370034e+00
4.014257279586957439e-01 6.402076148893600174e-03 7.004794125746822697e-01 1.302816664129037960e+00
4.188790204786390636e-01 6.603223748874840690e-03 7.397824723814984127e-01 1.445491507666806896e+00
4.363323129985823834e-01 6.799773253061597994e-03 7.801382203096477452e-01 1.601787880269417430e+00
4.537856055185257032e-01 6.991844131841178263e-03 8.215776738988926908e-01 1.772560739234381177e+00
4.712388980384689674e-01 7.179679117315404362e-03 8.641282939466072843e-01 1.957526422214211248e+00
4.886921905584122872e-01 7.363515212443620152e-03 9.078135014450033902e-01 2.157248888082134552e+00
5.061454830783556069e-01 7.543572978521393378e-03 9.526608820588755577e-01 2.372813242345094054e+00
5.235987755982988157e-01 7.720057254321014556e-03 9.987013330449702186e-01 2.605368640660682633e+00
5.410520681182421354e-01 7.893158813131474424e-03 1.045964816438366585e+00 2.855892290718331950e+00
5.585053606381854552e-01 8.063055679262310857e-03 1.094479579183618378e+00 3.125332345608158313e+00
5.759586531581287749e-01 8.229914258767829713e-03 1.144272215068347753e+00 3.414647896845278918e+00
5.934119456780720947e-01 8.393890384574938940e-03 1.195369580542228194e+00 3.724946911184874310e+00
6.108652381980153034e-01 8.555130225017703455e-03 1.247799255794946882e+00 4.057415932828086547e+00
6.283185307179586232e-01 8.713771135802182363e-03 1.301589005324035542e+00 4.413246636065417228e+00
6.457718232379019430e-01 8.869942394658833842e-03 1.356767360870254624e+00 4.793724042419441389e+00
6.632251157578451517e-01 9.023765842382375224e-03 1.413365132854984330e+00 5.200333154946674696e+00
6.806784082777884715e-01 9.175356520347040593e-03 1.471406009531684767e+00 5.633703594919674984e+00
6.981317007977317912e-01 9.324823205298237924e-03 1.530883512706125549e+00 6.091867831042621084e+00
7.155849933176750000e-01 9.472268872672622367e-03 1.591761585421311631e+00 6.572141404227767048e+00
7.330382858376184307e-01 9.617791198287789500e-03 1.653996943095691119e+00 7.073628799618457030e+00
7.504915783575616395e-01 9.761482909973698968e-03 1.717546889928806664e+00 7.596124526440714675e+00
7.679448708775049592e-01 9.903432198860315575e-03 1.782369327144372351e+00 8.139352067910207822e+00
7.853981633974482790e-01 1.004372303923662703e-02 1.848422752990273255e+00 8.702966987653415032e+00
8.028514559173914877e-01 1.018243549639923778e-02 1.915666262738564773e+00 9.286557649391523839e+00
8.203047484373349185e-01 1.031964602973011597e-02 1.984058935382315036e+00 9.889553664680082790e+00
8.377580409572781273e-01 1.045542772340142187e-02 2.053558066677490856e+00 1.051102676946852377e+01
8.552113334772214470e-01 1.058985056331019498e-02 2.124121300857904071e+00 1.115025310295180638e+01
8.726646259971647668e-01 1.072298161980341294e-02 2.195707316889733196e+00 1.180655688675327752e+01
8.901179185171079755e-01 1.085488528856196587e-02 2.268275828471527866e+00 1.247921322267759869e+01
9.075712110370514063e-01 1.098562344964476231e-02 2.341787417157257689e+00 1.316742655501028558e+01
9.250245035569946150e-01 1.111525566257134598e-02 2.416201658833039279e+00 1.386999497413921745e+01
9.424777960769379348e-01 1.124383932361688702e-02 2.491476011147733427e+00 1.458538678412019074e+01
9.599310885968812546e-01 1.137142980527884595e-02 2.567569223188026495e+00 1.531263043945606128e+01
9.773843811168245743e-01 1.149808062837857740e-02 2.644445820842615369e+00 1.605169176264974595e+01
9.948376736367677831e-01 1.162384354490537952e-02 2.722065069540463345e+00 1.680023423751915601e+01
1.012290966156711214e+00 1.174876872264501645e-02 2.800375603991771545e+00 1.755442050841487855e+01
1.029744258676654312e+00 1.187290479738477636e-02 2.879338434599008067e+00 1.831544243273278383e+01
1.047197551196597631e+00 1.199629903458973579e-02 2.958919000650345410e+00 1.908293728342358619e+01
1.064650843716540951e+00 1.211899740155722612e-02 3.039076369417807566e+00 1.985392073885098085e+01
1.082104136236484271e+00 1.224104466305759621e-02 3.119766678437094320e+00 2.062602095749596387e+01
1.099557428756427591e+00 1.236248450305487030e-02 3.200945849756906103e+00 2.139743691433472250e+01
1.117010721276370910e+00 1.248335956028221588e-02 3.282573814978124283e+00 2.216750315171682573e+01
1.134464013796314230e+00 1.260371156391735734e-02 3.364610571111910975e+00 2.293453607504973490e+01
1.151917306316257550e+00 1.272358137706858586e-02 3.447015863561507576e+00 2.369673755617040811e+01
1.169370598836200648e+00 1.284300907365783402e-02 3.529749464479244203e+00 2.445235836191369216e+01
1.186823891356144189e+00 1.296203403898484041e-02 3.612764485438717976e+00 2.519754730920203656e+01
1.204277183876087287e+00 1.308069499170657485e-02 3.696020406432807270e+00 2.593233712459069551e+01
1.221730476396030607e+00 1.319903009242399776e-02 3.779477323643716691e+00 2.665511113672459231e+01
1.239183768915973927e+00 1.331707699111256936e-02 3.863096254080440772e+00 2.736437640708605912e+01
1.256637061435917246e+00 1.343487287052611522e-02 3.946839612471676251e+00 2.805884262042636124e+01
1.274090353955860566e+00 1.355245454807232214e-02 4.030662828518760676e+00 2.873433413595492070e+01
1.291543646475803886e+00 1.366985849400327753e-02 4.114519203958430182e+00 2.938816616298236895e+01
1.308996938995747206e+00 1.378712090594769873e-02 4.198372589416585754e+00 3.002221677003906919e+01
1.326450231515690303e+00 1.390427778007924386e-02 4.282188284543497758e+00 3.063538442740755485e+01
1.343903524035633845e+00 1.402136492819369001e-02 4.365913187228629866e+00 3.121911009184035279e+01
1.361356816555576943e+00 1.413841807233941900e-02 4.449509684639463281e+00 3.177731171136665367e+01
1.378810109075520263e+00 1.425547288348771174e-02 4.532944556416857118e+00 3.231013267447305282e+01
1.396263401595463582e+00 1.437256501743469465e-02 4.616166676640094835e+00 3.280896548591283590e+01
1.413716694115406902e+00 1.448973020979339027e-02 4.699136324442697799e+00 3.327657967067680289e+01
1.431169986635350000e+00 1.460700429377815093e-02 4.781821285741094663e+00 3.371458505689389540e+01
1.448623279155293542e+00 1.472442326631115059e-02 4.864169460216282381e+00 3.411335210535922613e+01
1.466076571675236861e+00 1.484202336409520123e-02 4.946141945088747605e+00 3.447680345601217766e+01
1.483529864195180181e+00 1.495984107941522763e-02 5.027706225904390536e+00 3.480641611105116340e+01
1.500983156715123279e+00 1.507791325547710830e-02 5.108810672239199491e+00 3.509270980016232500e+01
1.518436449235066599e+00 1.519627713326509102e-02 5.189415398716880290e+00 3.533944786279285921e+01
1.535889741755009918e+00 1.531497038918427749e-02 5.269486297522925078e+00 3.554814473840634292e+01
1.553343034274953460e+00 1.543403124173500784e-02 5.348979234707269548e+00 3.571333995981348863e+01
1.570796326794896558e+00 1.555349847400188355e-02 5.427854290156144401e+00 3.583596103976903890e+01
1.588249619314839878e+00 1.567341151716797332e-02 5.506113897246497579e+00 3.593489905817818197e+01
1.605702911834782975e+00 1.579381053506408172e-02 5.583767521046201665e+00 3.601356473177159501e+01
1.623156204354726295e+00 1.591473645302775297e-02 5.660825608573919254e+00 3.607269662039630020e+01
1.640609496874669837e+00 1.603623108443464479e-02 5.737295650900416710e+00 3.611116278830908044e+01
1.658062789394613157e+00 1.615833717283222601e-02 5.813188894603103840e+00 3.613102075887986331e+01
1.675516081914556255e+00 1.628109848038572505e-02 5.888516072260419953e+00 3.613233722847233764e+01
1.692969374434499574e+00 1.640455990101690950e-02 5.963287835461114739e+00 3.611537463696215866e+01
1.710422666954442894e+00 1.652876750149457480e-02 6.037514637884116020e+00 3.608035292758027879e+01
1.727875959474386436e+00 1.665376867770666791e-02 6.111206810808144319e+00 3.602750971818490910e+01
1.745329251994329534e+00 1.677961220782543672e-02 6.184374585547014469e+00 3.595710690482396643e+01
1.762782544514272853e+00 1.690634838887598163e-02 6.257028122576217655e+00 3.586941160985831090e+01
1.780235837034215951e+00 1.703402915289084149e-02 6.329177474118790059e+00 3.576467090237522228e+01
1.797689129554159271e+00 1.716270816430231355e-02 6.400832505327512578e+00 3.564309733966152294e+01
1.815142422074102813e+00 1.729244100095662234e-02 6.472003635064319305e+00 3.550526005961254583e+01
1.832595714594046132e+00 1.742328523335686871e-02 6.542701243275406142e+00 3.535144963244143668e+01
1.850049007113989230e+00 1.755530064711570068e-02 6.612935147679984027e+00 3.518166869849774514e+01
1.867502299633932550e+00 1.768854933606206839e-02 6.682715514266078571e+00 3.499639223945847277e+01
1.884955592153875870e+00 1.782309594671442968e-02 6.752052570958544386e+00 3.479593054281474451e+01
1.902408884673818967e+00 1.795900780484536302e-02 6.820956595919805743e+00 3.458060025138964733e+01
1.919862177193762509e+00 1.809635518213299071e-02 6.889437934510454831e+00 3.435070557659442159e+01
1.937315469713705829e+00 1.823521145976752730e-02 6.957507009787619268e+00 3.410656518080588739e+01
1.954768762233649149e+00 1.837565343111355678e-02 7.025174281806425114e+00 3.384845531221255044e+01
1.972222054753592246e+00 1.851776150082239114e-02 7.092450391082100403e+00 3.357673273026577476e+01
1.989675347273535566e+00 1.866162003897586102e-02 7.159345825599607416e+00 3.329156239260984051e+01
2.007128639793478886e+00 1.880731762464903437e-02 7.225870218701555991e+00 3.299276571479096276e+01
2.024581932313422428e+00 1.895494745131837827e-02 7.292033058655965405e+00 3.268049736878069922e+01
2.042035224833365525e+00 1.910460765365731492e-02 7.357844827448505320e+00 3.235548095136078928e+01
2.059488517353308623e+00 1.925640173786276679e-02 7.423316758058519760e+00 3.201830178190198239e+01
2.076941809873252165e+00 1.941043904662398054e-02 7.488459339727823405e+00 3.166879362140048215e+01
2.094395102393195263e+00 1.956683521576640938e-02 7.553281637480270483e+00 3.130646191640029841e+01
2.111848394913138804e+00 1.972571276771156387e-02 7.617793709272338454e+00 3.093197551529411982e+01
2.129301687433081902e+00 1.988720170263853088e-02 7.682007030986111040e+00 3.054619123664804903e+01
2.146754979953025444e+00 2.005144015310423092e-02 7.745932242045896921e+00 3.014886903910449334e+01
2.164208272472968542e+00 2.021857516029443649e-02 7.809577642549585086e+00 2.973905378536662880e+01
2.181661564992911639e+00 2.038876350565234363e-02 7.872954320947846085e+00 2.931820583798436886e+01
2.199114857512855181e+00 2.056217263258503652e-02 7.936073311990463175e+00 2.888642305935302090e+01
2.216568150032798723e+00 2.073898169017467791e-02 7.998943689486235797e+00 2.844292120444497485e+01
2.234021442552741821e+00 2.091938271373215696e-02 8.061576453451339219e+00 2.798868904614460718e+01
2.251474735072684918e+00 2.110358194943517257e-02 8.123982223802638458e+00 2.752364129317412633e+01
2.268928027592628460e+00 2.129180133761700636e-02 8.186170096424168818e+00 2.704718722827830746e+01
2.286381320112572002e+00 2.148428022864241199e-02 8.248150816783688555e+00 2.656012441336892849e+01
2.303834612632515100e+00 2.168127721912834621e-02 8.309935393167471318e+00 2.606262343282368832e+01
2.321287905152458197e+00 2.188307264725793469e-02 8.371533431136567671e+00 2.555409896697699779e+01
2.338741197672401295e+00 2.208995899166792815e-02 8.432954799692469194e+00 2.503614369736770584e+01
2.356194490192344837e+00 2.230215370556750884e-02 8.494209956369347836e+00 2.452059960220944745e+01
2.373647782712288379e+00 2.251968622015251137e-02 8.555309384633961400e+00 2.402971863885502657e+01
2.391101075232231477e+00 2.274246280187949137e-02 8.616263561057724729e+00 2.357506543744350580e+01
2.408554367752174574e+00 2.297039029883602562e-02 8.677082947680224478e+00 2.315362865811215798e+01
2.426007660272118116e+00 2.320337636959871400e-02 8.737777668913805584e+00 2.276260456600062199e+01
2.443460952792061214e+00 2.344132896229047733e-02 8.798357509378993413e+00 2.239954976932348885e+01
2.460914245312004311e+00 2.368415602723423358e-02 8.858832552262580151e+00 2.206254391868073483e+01
2.478367537831947853e+00 2.393176522377837845e-02 8.919213205272541245e+00 2.174991580223527876e+01
2.495820830351891395e+00 2.418406375817886561e-02 8.979509820356323502e+00 2.146005519079314539e+01
2.513274122871834493e+00 2.444095837080858397e-02 9.039732672113748535e+00 2.119151020983589007e+01
2.530727415391777591e+00 2.470235545694658350e-02 9.099892040543307914e+00 2.094299389577932402e+01
2.548180707911721132e+00 2.496816130082638724e-02 9.159998211325884654e+00 2.071333003148754415e+01
2.565634000431664674e+00 2.523828242472085648e-02 9.220061459220664446e+00 2.050142650993214133e+01
2.583087292951607772e+00 2.551262606402850130e-02 9.280092062185932633e+00 2.030626711346896940e+01
2.600540585471550870e+00 2.579110069144241110e-02 9.340100329220293318e+00 2.012690491369280821e+01
2.617993877991494411e+00 2.607361615783202261e-02 9.400096573322812787e+00 1.996246420797963239e+01
2.635447170511437509e+00 2.636007985780074864e-02 9.460091048612069287e+00 1.981239503336864516e+01
2.652900463031380607e+00 2.665038060416120499e-02 9.520093941529514936e+00 1.967728931114545432e+01
2.670353755551324149e+00 2.694443180005226188e-02 9.580115368290520905e+00 1.955483266093806805e+01
2.687807048071267690e+00 2.724215429498067637e-02 9.640165404298805640e+00 1.944402218559835305e+01
2.705260340591210788e+00 2.754343836260758974e-02 9.700254239133990097e+00 1.934642543250622282e+01
2.722713633111153886e+00 2.784819547297913075e-02 9.760392221262007340e+00 1.926026573257280816e+01
2.740166925631096984e+00 2.815633686720491607e-02 9.820589793949750401e+00 1.918520779861974290e+01
2.757620218151040525e+00 2.846776388394297794e-02 9.880857450663082631e+00 1.912153065932619000e+01
2.775073510670984067e+00 2.878238010653908635e-02 9.941205587564443391e+00 1.906873176508355172e+01
2.792526803190927165e+00 2.910010983849780838e-02 1.000164427670050493e+01 1.902517166279910654e+01
2.809980095710870263e+00 2.942084074351856982e-02 1.006218334787678614e+01 1.899272020095677860e+01
2.827433388230813804e+00 2.974447724852517794e-02 1.012283288592096397e+01 1.897020665876323875e+01
2.844886680750756902e+00 3.007093070906148927e-02 1.018360337415623285e+01 1.895714470372336891e+01
2.862339973270700000e+00 3.040010956468855441e-02 1.024450541886852761e+01 1.895356631843051787e+01
2.879793265790643542e+00 3.073192121881652625e-02 1.030554942654859474e+01 1.895931111867843555e+01
2.897246558310587083e+00 3.106627619823372835e-02 1.036674469174050017e+01 1.897371744526201454e+01
2.914699850830530625e+00 3.140309094776792126e-02 1.042809378691350375e+01 1.899424295079460379e+01
2.932153143350473723e+00 3.174224910454975096e-02 1.048959039139251637e+01 1.901986369920317443e+01
2.949606435870416821e+00 3.208365466358328866e-02 1.055122135424334573e+01 1.904719809352518922e+01
2.967059728390360362e+00 3.242725162837020725e-02 1.061297336283967496e+01 1.907387111935448942e+01
2.984513020910303460e+00 3.277289576945789651e-02 1.067483428473410889e+01 1.910505665873376913e+01
3.001966313430246558e+00 3.312052855396702827e-02 1.073679313563684268e+01 1.913626662122069177e+01
3.019419605950190100e+00 3.347006137940868736e-02 1.079883939207424781e+01 1.916923131040369910e+01
3.036872898470133197e+00 3.382137128018938843e-02 1.086096233029195446e+01 1.920568962987272599e+01
3.054326190990076295e+00 3.417437712398511962e-02 1.092315099948490342e+01 1.924320053026328026e+01
3.071779483510019837e+00 3.452898769566745130e-02 1.098539422179736391e+01 1.928217569751109295e+01
3.089232776029963379e+00 3.488511768704286031e-02 1.104768059232292643e+01 1.932215605217361798e+01
3.106686068549906921e+00 3.524267846281593786e-02 1.110999847910450278e+01 1.936318730339994332e+01
3.124139361069850018e+00 3.560155023054707712e-02 1.117233602313432250e+01 1.940682024560551255e+01
3.141592653589793116e+00 3.596164321151197607e-02 1.123468124196958762e+01 1.945132778479030478e+01
3.159045946109736214e+00 3.632287989193246081e-02 1.129702238917895762e+01 1.949606377103195243e+01
3.176499238629679756e+00 3.668516980352142659e-02 1.135934783789388014e+01 1.954171033911815769e+01
3.193952531149622853e+00 3.704841760209147405e-02 1.142164602579251032e+01 1.958849724699016548e+01
3.211405823669565951e+00 3.741252806927852781e-02 1.148390545509970551e+01 1.963638687390440296e+01
3.228859116189509493e+00 3.777740617019943042e-02 1.154611469258703593e+01 1.968534119077759925e+01
3.246312408709452590e+00 3.814295705345193549e-02 1.160826236957277224e+01 1.973532477041126754e+01
3.263765701229396576e+00 3.850908567723401038e-02 1.167033718192189617e+01 1.978632490231058583e+01
3.281218993749339674e+00 3.887569584006910633e-02 1.173232789004609167e+01 1.983838386325229308e+01
3.298672286269282772e+00 3.924269191191784995e-02 1.179422331701807813e+01 1.989145236166631747e+01
3.316125578789226314e+00 3.960997936042610912e-02 1.185601228323784717e+01 1.994543362277970644e+01
3.333578871309169411e+00 3.997746475092502083e-02 1.191768352590557356e+01 2.000020604262562074e+01
3.351032163829112509e+00 4.034505574643097031e-02 1.197922569405556636e+01 2.005564692779111979e+01
3.368485456349056051e+00 4.071266110764560492e-02 1.204062732944912284e+01 2.011162750047229508e+01
3.385938748868999149e+00 4.108019069295582720e-02 1.210187674424548554e+01 2.016797825669176447e+01
3.403392041388942246e+00 4.144755533135664055e-02 1.216296197286372127e+01 2.022451905065108946e+01
3.420845333908885788e+00 4.181466451263186890e-02 1.222387095539514057e+01 2.028125637997278474e+01
3.438298626428828886e+00 4.218142437410243861e-02 1.228459210999518803e+01 2.033850197561427464e+01
