# angles(rad), pulling distance(m),                                     elastic band force(n), cable force(n)
0.000000000000000000e+00 3.644131462648482781e-04 2.615359167453484845e-02 1.877018884991523556e-02
1.745329251994329547e-02 7.168445024864766998e-04 5.279711780213890149e-02 3.991419499968851259e-02
3.490658503988659095e-02 1.057748515853653478e-03 7.995976488431784379e-02 6.371056922663521915e-02
5.235987755982988295e-02 1.387424884344683586e-03 1.076710876677669099e-01 9.050415953267550162e-02
6.981317007977318190e-02 1.706162496191063064e-03 1.359621566409651150e-01 1.206796627794340659e-01
8.726646259971647390e-02 2.014249169245598513e-03 1.648667542141245279e-01 1.546774852837828618e-01
1.047197551196597659e-01 2.311973863907098355e-03 1.944210838951693776e-01 1.929965808485203660e-01
1.221730476396030718e-01 2.599632577775901066e-03 2.246526460384661028e-01 2.360992419810887810e-01
1.396263401595463638e-01 2.877534799107578888e-03 2.555734497233584368e-01 2.843639186509034911e-01
1.570796326794896558e-01 3.145949144333409254e-03 2.871966582561649162e-01 3.383604481466398473e-01
1.745329251994329478e-01 3.405195920720089330e-03 3.195375013707291156e-01 3.986206634884716937e-01
1.919862177193762398e-01 3.655552361392083640e-03 3.526092513204638901e-01 4.657920906022068874e-01
2.094395102393195318e-01 3.897293822729232856e-03 3.864211673139187897e-01 5.404798984436008924e-01
2.268928027592628516e-01 4.130983654577384881e-03 4.209879283161800378e-01 6.227138334541763021e-01
2.443460952792061436e-01 4.357190096629071432e-03 4.563243200779043551e-01 7.128380075484719303e-01
2.617993877991494078e-01 4.576442964794682523e-03 4.924404888876973141e-01 8.111667580107175812e-01
2.792526803190927276e-01 4.789220175063359924e-03 5.293496641746183728e-01 9.182308348917145313e-01
2.967059728390360474e-01 4.995954325889328043e-03 5.670660982812384399e-01 1.034551429672928569e+00
3.141592653589793116e-01 5.197038788364471106e-03 6.056027297515591545e-01 1.160601317804004884e+00
3.316125578789225758e-01 5.392832185366930320e-03 6.449709822916493973e-01 1.296845598504472674e+00
3.490658503988658956e-01 5.583662464656687779e-03 6.851840307068561842e-01 1.443866177982389365e+00
3.665191429188092154e-01 5.769830332622792254e-03 7.262561432784750970e-01 1.602256844773787714e+00
3.839724354387524796e-01 5.951612236505660763e-03 7.681996348689186238e-01 1.772507286845671048e+00
4.014257279586957439e-01 6.129262937997363714e-03 8.110263036913158974e-01 1.955160020353942318e+00
4.188790204786390636e-01 6.303017781989716205e-03 8.547487995701907870e-01 2.150832172962369171e+00
4.363323129985823834e-01 6.473094681085274534e-03 8.993817017305468786e-01 2.360227386060239851e+00
4.537856055185257032e-01 6.639695817701173411e-03 9.449390676095074104e-01 2.583952049238424475e+00
4.712388980384689674e-01 6.803009136234379299e-03 9.914327582618134294e-01 2.822511255003052000e+00
4.886921905584122872e-01 6.963209764229518796e-03 1.038874476938274061e+00 3.076516696086604163e+00
5.061454830783556069e-01 7.120461146519155987e-03 1.087276654303666934e+00 3.346651501601802803e+00
5.235987755982988157e-01 7.274916082693056590e-03 1.136652937138286967e+00 3.633661590831374966e+00
5.410520681182421354e-01 7.426717761445993278e-03 1.187017439131663021e+00 3.938266208282128478e+00
5.585053606381854552e-01 7.576000468691435757e-03 1.238382555917719063e+00 4.261020300626294777e+00
5.759586531581287749e-01 7.722890484582624511e-03 1.290759240431372579e+00 4.602470025548696775e+00
5.934119456780720947e-01 7.867506627477873285e-03 1.344159277727778434e+00 4.963357072451105800e+00
6.108652381980153034e-01 8.009960981405481184e-03 1.398595783744008170e+00 5.344495671556913408e+00
6.283185307179586232e-01 8.150359335503875799e-03 1.454082932170865039e+00 5.746713770289609613e+00
6.457718232379019430e-01 8.288801793969980194e-03 1.510635751434507013e+00 6.170846109684472225e+00
6.632251157578451517e-01 8.425383100283904275e-03 1.568269625874257445e+00 6.617703194137407152e+00
6.806784082777884715e-01 8.560193192221994193e-03 1.626994928980041832e+00 7.087434551992216392e+00
6.981317007977317912e-01 8.693317407938504909e-03 1.686813731527292415e+00 7.579626065560912451e+00
7.155849933176750000e-01 8.824836999239122834e-03 1.747719753890468741e+00 8.093597110692858365e+00
7.330382858376184307e-01 8.954829287826268983e-03 1.809698366043057893e+00 8.628403604646372571e+00
7.504915783575616395e-01 9.083368049814286027e-03 1.872726587557573374e+00 9.182804032895933943e+00
7.679448708775049592e-01 9.210523752420006482e-03 1.936775959813091141e+00 9.755699656684248211e+00
7.853981633974482790e-01 9.336363726478284081e-03 2.001822530507658460e+00 1.034740286010723764e+01
8.028514559173914877e-01 9.460952527377074206e-03 2.067843708594906182e+00 1.095776480364726524e+01
8.203047484373349185e-01 9.584351998420288787e-03 2.134816759966316368e+00 1.158636996780175288e+01
8.377580409572781273e-01 9.706621516528429749e-03 2.202718807451224947e+00 1.223273955550948777e+01
8.552113334772214470e-01 9.827818177295454677e-03 2.271526832555602837e+00 1.289633512429894502e+01
8.726646259971647668e-01 9.947996856494801046e-03 2.341218197234597120e+00 1.357667535236663703e+01
8.901179185171079755e-01 1.006721055550991589e-02 2.411771894132261007e+00 1.427347902218328457e+01
9.075712110370514063e-01 1.018551053082700220e-02 2.483167872767438666e+00 1.498632606781775323e+01
9.250245035569946150e-01 1.030294628627417310e-02 2.555380945945992632e+00 1.571343502206968878e+01
9.424777960769379348e-01 1.041956553928625323e-02 2.628381903855931068e+00 1.645306343325269083e+01
9.599310885968812546e-01 1.053541421200232357e-02 2.702153293719357308e+00 1.720706844784232459e+01
9.773843811168245743e-01 1.065053669562828279e-02 2.776677383510748331e+00 1.797471250905313411e+01
9.948376736367677831e-01 1.076497700423698252e-02 2.851922910791086174e+00 1.875164841778797964e+01
1.012290966156711214e+00 1.087877908946066272e-02 2.927867790372512324e+00 1.953888334586573450e+01
1.029744258676654312e+00 1.099198637063024744e-02 3.004491510822392186e+00 2.033573417194149613e+01
1.047197551196597631e+00 1.110463866139982034e-02 3.081771570921437053e+00 2.114111400534988761e+01
1.064650843716540951e+00 1.121677093430763911e-02 3.159685320318757373e+00 2.195469010282954869e+01
1.082104136236484271e+00 1.132841344730344674e-02 3.238209902232709769e+00 2.277618730527790447e+01
1.099557428756427591e+00 1.143959371105382483e-02 3.317322807856646349e+00 2.360518291369894683e+01
1.117010721276370910e+00 1.155033801566958222e-02 3.397001974666117974e+00 2.444101192658662214e+01
1.134464013796314230e+00 1.166067149054340196e-02 3.477226574203199583e+00 2.528327053364110455e+01
1.151917306316257550e+00 1.177061988647664162e-02 3.557970958580355170e+00 2.612918289929516646e+01
1.169370598836200648e+00 1.188021274544415889e-02 3.639208286177344931e+00 2.697616966316173759e+01
1.186823891356144189e+00 1.198948372715947890e-02 3.720919478568831540e+00 2.782447477031669791e+01
1.204277183876087287e+00 1.209846989340320790e-02 3.803087727248185335e+00 2.867272690582500871e+01
1.221730476396030607e+00 1.220720794736471909e-02 3.885678626171181538e+00 2.951328251422839344e+01
1.239183768915973927e+00 1.231573300271431894e-02 3.968676706400522392e+00 3.035175118050378984e+01
1.256637061435917246e+00 1.242407861351202750e-02 4.052058865598700876e+00 3.118441207946832350e+01
1.274090353955860566e+00 1.253227757304384293e-02 4.135798428424751094e+00 3.200862132422970063e+01
1.291543646475803886e+00 1.264036276910917786e-02 4.219878657646390252e+00 3.282673092510634660e+01
1.308996938995747206e+00 1.274836722594191625e-02 4.304270135000638042e+00 3.363228946996260760e+01
1.326450231515690303e+00 1.285632406566732111e-02 4.388955256102048175e+00 3.442850015960687671e+01
1.343903524035633845e+00 1.296426635353102250e-02 4.473908946087598260e+00 3.521095218117137193e+01
1.361356816555576943e+00 1.307222705905602793e-02 4.559106598882457284e+00 3.597838483709892898e+01
1.378810109075520263e+00 1.318023906230464913e-02 4.644533027946119219e+00 3.673349806617331836e+01
1.396263401595463582e+00 1.328833529183207941e-02 4.730154358047484742e+00 3.746681170021988549e+01
1.413716694115406902e+00 1.339654885934931684e-02 4.815954697260614203e+00 3.818472638324255541e+01
1.431169986635350000e+00 1.350491306532760998e-02 4.901913192020688648e+00 3.888378783627663893e+01
1.448623279155293542e+00 1.361346142682788238e-02 4.987999145937138223e+00 3.955809730129882951e+01
1.466076571675236861e+00 1.372222777887183512e-02 5.074195116975270814e+00 4.021236045205348830e+01
1.483529864195180181e+00 1.383124629751665904e-02 5.160482230065204234e+00 4.084472246728436318e+01
1.500983156715123279e+00 1.394055150679435022e-02 5.246828534962317825e+00 4.144763634016442921e+01
1.518436449235066599e+00 1.405017838680858340e-02 5.333214484058260041e+00 4.202571439393200592e+01
1.535889741755009918e+00 1.416016245918420499e-02 5.419621826911529716e+00 4.257844897156284958e+01
1.553343034274953460e+00 1.427053978972186825e-02 5.506024610943955011e+00 4.310086618504284672e+01
1.570796326794896558e+00 1.438134704972487965e-02 5.592396329678006595e+00 4.359144724119783376e+01
1.588249619314839878e+00 1.449262164943258303e-02 5.678718532858828993e+00 4.405313488323493232e+01
1.605702911834782975e+00 1.460440175556008101e-02 5.764971933519191793e+00 4.448451975975135042e+01
1.623156204354726295e+00 1.471672632177607569e-02 5.851125486796460606e+00 4.487845075576378662e+01
1.640609496874669837e+00 1.482963524877856792e-02 5.937158626467799571e+00 4.523932791873271952e+01
1.658062789394613157e+00 1.494316943666604627e-02 6.023053514287512122e+00 4.556772859066757775e+01
1.675516081914556255e+00 1.505737080152198468e-02 6.108778407376431296e+00 4.585535177594783107e+01
1.692969374434499574e+00 1.517228244049992694e-02 6.194302580437354599e+00 4.610173613333765985e+01
1.710422666954442894e+00 1.528794872663009202e-02 6.279605451597962684e+00 4.631153923056672284e+01
1.727875959474386436e+00 1.540441532300470054e-02 6.364652620033981911e+00 4.647647482302404853e+01
1.745329251994329534e+00 1.552172936041338290e-02 6.449415065390051716e+00 4.659870243441803694e+01
1.762782544514272853e+00 1.563993956555193715e-02 6.533873225281269903e+00 4.668284848359244421e+01
1.780235837034215951e+00 1.575909628215075783e-02 6.617985232430988241e+00 4.671595836776105415e+01
1.797689129554159271e+00 1.587925168566001535e-02 6.701735616198326362e+00 4.671225041665373823e+01
1.815142422074102813e+00 1.600045992275421838e-02 6.785084858074390546e+00 4.665785861943772517e+01
1.832595714594046132e+00 1.612277715634839043e-02 6.868015545583648240e+00 4.656492256105632066e+01
1.850049007113989230e+00 1.624626184680202229e-02 6.950487717012618027e+00 4.642047628792082747e+01
1.867502299633932550e+00 1.637097486604623814e-02 7.032486017879343798e+00 4.623830838429886114e+01
1.884955592153875870e+00 1.649697962480557376e-02 7.113969585965858045e+00 4.600394705969678455e+01
1.902408884673818967e+00 1.662434240406031327e-02 7.194915523931398660e+00 4.572758140764166512e+01
1.919862177193762509e+00 1.675313242904917857e-02 7.275301877025941444e+00 4.540995978582724746e+01
1.937315469713705829e+00 1.688342218824209068e-02 7.355089373216558535e+00 4.504146519130907222e+01
1.954768762233649149e+00 1.701528768544509004e-02 7.434252271823918790e+00 4.463009439913946608e+01
1.972222054753592246e+00 1.714880863209993986e-02 7.512764394363377285e+00 4.417607076027365309e+01
1.989675347273535566e+00 1.728406889218283421e-02 7.590598518044617826e+00 4.367931745111613395e+01
2.007128639793478886e+00 1.742115664312806136e-02 7.667726229114843584e+00 4.313982606666698416e+01
2.024581932313422428e+00 1.756016490587398657e-02 7.744118400767356469e+00 4.255790342838065499e+01
2.042035224833365525e+00 1.770119179054372577e-02 7.819745597649076174e+00 4.193423411878458751e+01
2.059488517353308623e+00 1.784434106492284802e-02 7.894578859719834973e+00 4.127000233218440428e+01
2.076941809873252165e+00 1.798972252045631312e-02 7.968589518814410688e+00 4.056642301299768860e+01
2.094395102393195263e+00 1.813745261691514232e-02 8.041753104744737257e+00 3.982692142040521333e+01
2.111848394913138804e+00 1.828765495603149049e-02 8.114042234619775584e+00 3.905112639128923746e+01
2.129301687433081902e+00 1.844046106725827014e-02 8.185421587799877940e+00 3.823604263945241399e+01
2.146754979953025444e+00 1.859601099568343810e-02 8.255866262486089013e+00 3.738875478772572336e+01
2.164208272472968542e+00 1.875445425516670747e-02 8.325352012726195738e+00 3.651107232355053611e+01
2.181661564992911639e+00 1.891595063764180823e-02 8.393847010341367820e+00 3.560058263497568021e+01
2.199114857512855181e+00 1.908067126763077215e-02 8.461319118353953783e+00 3.465886680501287742e+01
2.216568150032798723e+00 1.924879979268618452e-02 8.527738517570089272e+00 3.368894533647006284e+01
2.234021442552741821e+00 1.942053360829634062e-02 8.593077289256422446e+00 3.269368429804625009e+01
2.251474735072684918e+00 1.959608535565112233e-02 8.657309105143982109e+00 3.167582737866436915e+01
2.268928027592628460e+00 1.977568462759346155e-02 8.720409220206340351e+00 3.063814341978716982e+01
2.286381320112572002e+00 1.995957978709368350e-02 8.782354472659610778e+00 2.958344126194092993e+01
2.303834612632515100e+00 2.014804022735941849e-02 8.843123283962444958e+00 2.851453012701687584e+01
2.321287905152458197e+00 2.034135876743672564e-02 8.902674373583305822e+00 2.742437219288851580e+01
2.338741197672401295e+00 2.053985434449692726e-02 8.960977419870639338e+00 2.632060064149502665e+01
2.356194490192344837e+00 2.074387670289246782e-02 9.018006216130594055e+00 2.520733723573905394e+01
2.373647782712288379e+00 2.095380463280846484e-02 9.073732683115155240e+00 2.408669799176704629e+01
2.391101075232231477e+00 2.117003803810984033e-02 9.128128574444986043e+00 2.296281137912873049e+01
2.408554367752174574e+00 2.139272789413554018e-02 9.181165606706311877e+00 2.186636540926494732e+01
2.426007660272118116e+00 2.162204225538074190e-02 9.232814714372022280e+00 2.079532387987970310e+01
2.443460952792061214e+00 2.185806759074091291e-02 9.283059523179627348e+00 1.976167305005699504e+01
2.460914245312004311e+00 2.210073805687649828e-02 9.331924572798310891e+00 1.879111885963191142e+01
2.478367537831947853e+00 2.234992295430926826e-02 9.379454177475636811e+00 1.789040000968695310e+01
2.495820830351891395e+00 2.260539164458276462e-02 9.425727547837563947e+00 1.707294076956241824e+01
2.513274122871834493e+00 2.286702672420569751e-02 9.470825998931960754e+00 1.632501206458833920e+01
2.530727415391777591e+00 2.313469903700597630e-02 9.514821340671664629e+00 1.563881643550500478e+01
2.548180707911721132e+00 2.340827747528674910e-02 9.557778162352878581e+00 1.500746092305077894e+01
2.565634000431664674e+00 2.368762885259045881e-02 9.599756757416422204e+00 1.442571379163030620e+01
2.583087292951607772e+00 2.397257336060675675e-02 9.640813147500134406e+00 1.389101997660942800e+01
2.600540585471550870e+00 2.426294905851657246e-02 9.680999020173898018e+00 1.339779453927856956e+01
2.617993877991494411e+00 2.455862099736497509e-02 9.720362171799665774e+00 1.294083204230308581e+01
2.635447170511437509e+00 2.485944946529061381e-02 9.758947148494751644e+00 1.251705833858496497e+01
2.652900463031380607e+00 2.516529271333899087e-02 9.796795387121113308e+00 1.212357807312950975e+01
2.670353755551324149e+00 2.547600665119779603e-02 9.833945643808604586e+00 1.175787631014948786e+01
2.687807048071267690e+00 2.579144561419520823e-02 9.870434121826297869e+00 1.141764844320482553e+01
2.705260340591210788e+00 2.611146288153063516e-02 9.906294669452346824e+00 1.110081198897345089e+01
2.722713633111153886e+00 2.643591128982428554e-02 9.941559134069670733e+00 1.080553183072281342e+01
2.740166925631096984e+00 2.676464392796179884e-02 9.976257401765007415e+00 1.053010287890045582e+01
2.757620218151040525e+00 2.709751461595539396e-02 1.001041756731487453e+01 1.027298388404044793e+01
2.775073510670984067e+00 2.743437934849480425e-02 1.004406619771091513e+01 1.003278285062390118e+01
2.792526803190927165e+00 2.777509449362629626e-02 1.007722835486361390e+01 9.808270490548464338e+00
2.809980095710870263e+00 2.811952482498895553e-02 1.010992767237615730e+01 9.598101702598798468e+00
2.827433388230813804e+00 2.846752945489210845e-02 1.014218659874911665e+01 9.401485573364656290e+00
2.844886680750756902e+00 2.881892690848089286e-02 1.017402644542504930e+01 9.218605279886512349e+00
2.862339973270700000e+00 2.917356913482161210e-02 1.020546739238566403e+01 9.047697514847147460e+00
2.879793265790643542e+00 2.953134354466734404e-02 1.023652862426103916e+01 8.887141742031676728e+00
2.897246558310587083e+00 2.989211441769819982e-02 1.026722847066632660e+01 8.736912002053440318e+00
2.914699850830530625e+00 3.025568998796084041e-02 1.029758441264467272e+01 8.597741446751710370e+00
2.932153143350473723e+00 3.062192836401244830e-02 1.032761308862836991e+01 8.467833176491556202e+00
2.949606435870416821e+00 3.099071263294700743e-02 1.035733040797843962e+01 8.346128652322937214e+00
2.967059728390360362e+00 3.136189680366675142e-02 1.038675165279554768e+01 8.232871639942237252e+00
2.984513020910303460e+00 3.173532521391349975e-02 1.041589148152671029e+01 8.127857589986884790e+00
3.001966313430246558e+00 3.211084385848094608e-02 1.044476392930079456e+01 8.030650552883608739e+00
3.019419605950190100e+00 3.248830440859354352e-02 1.047338246009293350e+01 7.940772044723721557e+00
3.036872898470133197e+00 3.286756525342664909e-02 1.050176007494446395e+01 7.857781965367396815e+00
3.054326190990076295e+00 3.324848620229069185e-02 1.052990932541848146e+01 7.781379731248978082e+00
3.071779483510019837e+00 3.363092465500364808e-02 1.055784231359982783e+01 7.711360677104012851e+00
3.089232776029963379e+00 3.401473565811585081e-02 1.058557069569467579e+01 7.647533462098941470e+00
3.106686068549906921e+00 3.439977327805276291e-02 1.061310575027423120e+01 7.589711523260398884e+00
3.124139361069850018e+00 3.478589137381527668e-02 1.064045843929930157e+01 7.537723664558537706e+00
3.141592653589793116e+00 3.517294360560986599e-02 1.066763941027035223e+01 7.491412613636239115e+00
3.159045946109736214e+00 3.556078343484859322e-02 1.069465899622751337e+01 7.450633902100354256e+00
3.176499238629679756e+00 3.594926412414911621e-02 1.072152721813888832e+01 7.415255904855435176e+00
3.193952531149622853e+00 3.633823873733468129e-02 1.074825383653327471e+01 7.385172938213787397e+00
3.211405823669565951e+00 3.672755944186530813e-02 1.077484840136420985e+01 7.360317625518352891e+00
3.228859116189509493e+00 3.711707578825953341e-02 1.080132025404443219e+01 7.340666474304033962e+00
3.246312408709452590e+00 3.750663829131371807e-02 1.082767852744586179e+01 7.326139161025100321e+00
3.263765701229396576e+00 3.789609949979904496e-02 1.085393214598757616e+01 7.316646383002397336e+00
3.281218993749339674e+00 3.828531399646154659e-02 1.088008984895549247e+01 7.312116094689129042e+00
3.298672286269282772e+00 3.867413839802209125e-02 1.090616024503919590e+01 7.312501895441340771e+00
3.316125578789226314e+00 3.906243135517637605e-02 1.093215182011606856e+01 7.317769728988116285e+00
3.333578871309169411e+00 3.945005355259495472e-02 1.095807293725127174e+01 7.327895411414411697e+00
3.351032163829112509e+00 3.983686921231001377e-02 1.098393183669776718e+01 7.342835838175891361e+00
3.368485456349056051e+00 4.022277023285641961e-02 1.100973663886581377e+01 7.362097034259050155e+00
3.385938748868999149e+00 4.060769565007469467e-02 1.103549538477692415e+01 7.384820770578024884e+00
3.403392041388942246e+00 4.099163219114593248e-02 1.106121606528824941e+01 7.410130947375658472e+00
3.420845333908885788e+00 4.137460451815454937e-02 1.108690662174147334e+01 7.437320672286296563e+00
3.438298626428828886e+00 4.175663820738617638e-02 1.111257494596280537e+01 7.466388035581665861e+00
