# angles(rad), pulling distance(m),                                     elastic band force(n), cable force(n)
0.000000000000000000e+00 3.259460876661564787e-04 2.197268912665840609e-02 1.481223692279041992e-02
1.745329251994329547e-02 6.472038462472317439e-04 4.426452742267781432e-02 3.071482823992339323e-02
3.490658503988659095e-02 9.638514922702167212e-04 6.689382378254031536e-02 4.780582398233402391e-02
5.235987755982988295e-02 1.276013049098002894e-03 8.987909864441279151e-02 6.618033968285513824e-02
6.981317007977318190e-02 1.583734163175803868e-03 1.132390974063931383e-01 8.596307026733022993e-02
8.726646259971647390e-02 1.887048283173873350e-03 1.369933304187686829e-01 1.072871744951899992e-01
1.047197551196597659e-01 2.185993435108650289e-03 1.611627840945974444e-01 1.302986992507512987e-01
1.221730476396030718e-01 2.480605710036996522e-03 1.857699303861401197e-01 1.551621654153158003e-01
1.396263401595463638e-01 2.770921566551888277e-03 2.108386930801927073e-01 1.820591278410045588e-01
1.570796326794896558e-01 3.056977174689898616e-03 2.363946438792803306e-01 2.111928490921961554e-01
1.745329251994329478e-01 3.338808662453673481e-03 2.624651890175370150e-01 2.427908468211366633e-01
1.919862177193762398e-01 3.616452083524752687e-03 2.890797604357329686e-01 2.771084544337939493e-01
2.094395102393195318e-01 3.889943454695295611e-03 3.162700020743324791e-01 3.144325081495554786e-01
2.268928027592628516e-01 4.159318765433322150e-03 3.440700208763175505e-01 3.550864785400965062e-01
2.443460952792061436e-01 4.424613988450912250e-03 3.725166622988206333e-01 3.994360620515077787e-01
2.617993877991494078e-01 4.685865084835722644e-03 4.016498089499111468e-01 4.478956432506124852e-01
2.792526803190927276e-01 4.943108006881531680e-03 4.315127338243210375e-01 5.009363231479770917e-01
2.967059728390360474e-01 5.196378699025673911e-03 4.621525106092514434e-01 5.590954739288853670e-01
3.141592653589793116e-01 5.445713097913561403e-03 4.936204801692213318e-01 6.229880158303889859e-01
3.316125578789225758e-01 5.691147132322933559e-03 5.259727841955958993e-01 6.933199572277755074e-01
3.490658503988658956e-01 5.932716723637852102e-03 5.592710111175435150e-01 7.709055157849634687e-01
3.665191429188092154e-01 6.170457787458259041e-03 5.935828701506945526e-01 8.566854811623660915e-01
3.839724354387524796e-01 6.404406236848871753e-03 6.289832693080971149e-01 9.517591954481322558e-01
4.014257279586957439e-01 6.634597987645905054e-03 6.655546155104585804e-01 1.057389249446822665e+00
4.188790204786390636e-01 6.861068966170251124e-03 7.033891718491713796e-01 1.175091723618225448e+00
4.363323129985823834e-01 7.083855119591869406e-03 7.425599729269997118e-01 1.305586929042004574e+00
4.537856055185257032e-01 7.302992429228746633e-03 7.831277950879816929e-01 1.449766321084048126e+00
4.712388980384689674e-01 7.518516926592149624e-03 8.251490251645484664e-01 1.608809089364431788e+00
4.886921905584122872e-01 7.730464713397902643e-03 8.686684460963376431e-01 1.783644374190923365e+00
5.061454830783556069e-01 7.938871981394549082e-03 9.137532746904251102e-01 1.976726155604455970e+00
5.235987755982988157e-01 8.143775046501610521e-03 9.604445710586886342e-01 2.188566680989373125e+00
5.410520681182421354e-01 8.345210347671409498e-03 1.008804620779732542e+00 2.421911220943474330e+00
5.585053606381854552e-01 8.543214570629620308e-03 1.058886342993093477e+00 2.678268720384521906e+00
5.759586531581287749e-01 8.737824412559836926e-03 1.110738632613154309e+00 2.959477316214047526e+00
5.934119456780720947e-01 8.929077280724074736e-03 1.164428308122397837e+00 3.268854402914497470e+00
6.108652381980153034e-01 9.117009640081698285e-03 1.219990939698516019e+00 3.606931096931440539e+00
6.283185307179586232e-01 9.301646821058990114e-03 1.277500419520076536e+00 3.979067715914734293e+00
6.457718232379019430e-01 9.483025546087544069e-03 1.336994120623487214e+00 4.385449758612501192e+00
6.632251157578451517e-01 9.661215870933456337e-03 1.398532565110013781e+00 4.829864847883562184e+00
6.806784082777884715e-01 9.836360252039620666e-03 1.462180427353659162e+00 5.313596578308056095e+00
6.981317007977317912e-01 1.000862055778999928e-02 1.527970732753255456e+00 5.835683427565284020e+00
7.155849933176750000e-01 1.017813835929111052e-02 1.595969732945493380e+00 6.401943938416097879e+00
7.330382858376184307e-01 1.034505028518194376e-02 1.666239836368168303e+00 7.014887941868901855e+00
7.504915783575616395e-01 1.050948456695814312e-02 1.738817261660011049e+00 7.674730508815485130e+00
7.679448708775049592e-01 1.067156223882300033e-02 1.813666958414407393e+00 8.375763316984160767e+00
7.853981633974482790e-01 1.083139795181518351e-02 1.890721992591081646e+00 9.114962171490562426e+00
8.028514559173914877e-01 1.098910024767788852e-02 1.969890070897511558e+00 9.889038744473582554e+00
8.203047484373349185e-01 1.114477211984648761e-02 2.051092671868735007e+00 1.069904649237935956e+01
8.377580409572781273e-01 1.129851143283199834e-02 2.134255452423781563e+00 1.154490770067750560e+01
8.552113334772214470e-01 1.145041127513443148e-02 2.219299230414629953e+00 1.242513410059143020e+01
8.726646259971647668e-01 1.160056034279658040e-02 2.306139894986813932e+00 1.333785978130097227e+01
8.901179185171079755e-01 1.174904325295233337e-02 2.394689438122502789e+00 1.428101425781424183e+01
9.075712110370514063e-01 1.189594082385141832e-02 2.484860643804561064e+00 1.525300104231662424e+01
9.250245035569946150e-01 1.204133037967767585e-02 2.576570371526568426e+00 1.625265074141024968e+01
9.424777960769379348e-01 1.218528596446918563e-02 2.669740080758480794e+00 1.727886468658344654e+01
9.599310885968812546e-01 1.232787860394474362e-02 2.764291888289767574e+00 1.832975359339438626e+01
9.773843811168245743e-01 1.246917650021763663e-02 2.860142186027976763e+00 1.940195058353353730e+01
9.948376736367677831e-01 1.260924523482674295e-02 2.957210140373446094e+00 2.049353409929821623e+01
1.012290966156711214e+00 1.274814795893851674e-02 3.055415338428924432e+00 2.160200027543793055e+01
1.029744258676654312e+00 1.288594554741064914e-02 3.154675135339996661e+00 2.272408514011001657e+01
1.047197551196597631e+00 1.302269678060968827e-02 3.254909614087611036e+00 2.385749370638677291e+01
1.064650843716540951e+00 1.315845846479428774e-02 3.356049130526145952e+00 2.500183967546002961e+01
1.082104136236484271e+00 1.329328560032091294e-02 3.457982149603883393e+00 2.614329519419636227e+01
1.099557428756427591e+00 1.342723148038783669e-02 3.560653953096333701e+00 2.729302034480400607e+01
1.117010721276370910e+00 1.356034784250004926e-02 3.663960914348332487e+00 2.843472148738155880e+01
1.134464013796314230e+00 1.369268495458488694e-02 3.767842241426186511e+00 2.957662035185004967e+01
1.151917306316257550e+00 1.382429174728178056e-02 3.872205118803306867e+00 3.070620138304336066e+01
1.169370598836200648e+00 1.395521589543826518e-02 3.976962786654621773e+00 3.182127609976492622e+01
1.186823891356144189e+00 1.408550392817828345e-02 4.082037944051955414e+00 3.292096522241875078e+01
1.204277183876087287e+00 1.421520131345987287e-02 4.187350328563677060e+00 3.400067371671030259e+01
1.221730476396030607e+00 1.434435254289800898e-02 4.292818146534719048e+00 3.505612488794607629e+01
1.239183768915973927e+00 1.447300122523973234e-02 4.398359443316926409e+00 3.608342898754921180e+01
1.256637061435917246e+00 1.460119014555851837e-02 4.503892905368115152e+00 3.707897763935127955e+01
1.274090353955860566e+00 1.472896136849475082e-02 4.609338145007975562e+00 3.803929821694563884e+01
1.291543646475803886e+00 1.485635627790087877e-02 4.714615129890201928e+00 3.896077700975151004e+01
1.308996938995747206e+00 1.498341568209637584e-02 4.819638873291324010e+00 3.983778450084677303e+01
1.326450231515690303e+00 1.511017984917604855e-02 4.924321745834081554e+00 4.066544651807517141e+01
1.343903524035633845e+00 1.523668859839426813e-02 5.028585141876752651e+00 4.144356555746241355e+01
1.361356816555576943e+00 1.536298134900935392e-02 5.132352429210935263e+00 4.216950590025437862e+01
1.378810109075520263e+00 1.548909718536225014e-02 5.235543481874534777e+00 4.283849346634990951e+01
1.396263401595463582e+00 1.561507492844328021e-02 5.338065195282641895e+00 4.344160934464016321e+01
1.413716694115406902e+00 1.574095317435259683e-02 5.439839578719202429e+00 4.398189020816067085e+01
1.431169986635350000e+00 1.586677038329718445e-02 5.540790403620570181e+00 4.445714275043513197e+01
1.448623279155293542e+00 1.599256490659935886e-02 5.640838759267750468e+00 4.486337143469722832e+01
1.466076571675236861e+00 1.611837507368330674e-02 5.739892332716498125e+00 4.519164547228208306e+01
1.483529864195180181e+00 1.624423923079268070e-02 5.837869440003895960e+00 4.544403852449016057e+01
1.500983156715123279e+00 1.637019580685578068e-02 5.934690623094573958e+00 4.561919554857573189e+01
1.518436449235066599e+00 1.649628337828068503e-02 6.030275646584859928e+00 4.571458017771473692e+01
1.535889741755009918e+00 1.662254070971950007e-02 6.124542937369864326e+00 4.572756792995242137e+01
1.553343034274953460e+00 1.674900684206127519e-02 6.217409942407310375e+00 4.565587875187016920e+01
1.570796326794896558e+00 1.687572112112060638e-02 6.308794314908474199e+00 4.549804599660573956e+01
1.588249619314839878e+00 1.700272329130155316e-02 6.398619213240112735e+00 4.525555110383370305e+01
1.605702911834782975e+00 1.713005353423141183e-02 6.486844982142507376e+00 4.494665785059537200e+01
1.623156204354726295e+00 1.725775254924769020e-02 6.573485974746327898e+00 4.459966661815783340e+01
1.640609496874669837e+00 1.738586161758992263e-02 6.658552958224175811e+00 4.421412331018398589e+01
1.658062789394613157e+00 1.751442266314313587e-02 6.742075305727929013e+00 4.380128943089493276e+01
1.675516081914556255e+00 1.764347834462946449e-02 6.824070426118502120e+00 4.335651632684072609e+01
1.692969374434499574e+00 1.777307210192156581e-02 6.904558971898691944e+00 4.288307728041721134e+01
1.710422666954442894e+00 1.790324826917316994e-02 6.983559658984860974e+00 4.238149140623652755e+01
1.727875959474386436e+00 1.803405211925171100e-02 7.061101196485977560e+00 4.185875590800493029e+01
1.745329251994329534e+00 1.816552998698196461e-02 7.137191530334644263e+00 4.130514858966476766e+01
1.762782544514272853e+00 1.829772932448345962e-02 7.211856663824471880e+00 4.073199236023852876e+01
1.780235837034215951e+00 1.843069882755061367e-02 7.285118762234056966e+00 4.013875929240341378e+01
1.797689129554159271e+00 1.856448850905540252e-02 7.356998874525702448e+00 3.952635952806934228e+01
1.815142422074102813e+00 1.869914982853546417e-02 7.427516805513881160e+00 3.889558779960648138e+01
1.832595714594046132e+00 1.883473578506401555e-02 7.496691874863209648e+00 3.824763224832950215e+01
1.850049007113989230e+00 1.897130105530035749e-02 7.564543406391416092e+00 3.758392265815348310e+01
1.867502299633932550e+00 1.910890210401620937e-02 7.631091227857002224e+00 3.690615016079654254e+01
1.884955592153875870e+00 1.924759733903162393e-02 7.696355800300783478e+00 3.621605101473204513e+01
1.902408884673818967e+00 1.938744723630001637e-02 7.760359466625729397e+00 3.551604023779378139e+01
1.919862177193762509e+00 1.952851452172417804e-02 7.823123756350536695e+00 3.480699330962688975e+01
1.937315469713705829e+00 1.967086430868231206e-02 7.884667833533944403e+00 3.408888879161182928e+01
1.954768762233649149e+00 1.981456431512111302e-02 7.945011735590760793e+00 3.336346475509220966e+01
1.972222054753592246e+00 1.995968501823834271e-02 8.004175553909391283e+00 3.263198000628343465e+01
1.989675347273535566e+00 2.010629990542164153e-02 8.062179305603670798e+00 3.189557728693343464e+01
2.007128639793478886e+00 2.025448566854873983e-02 8.119043785249820289e+00 3.115584050247442960e+01
2.024581932313422428e+00 2.040432247000318472e-02 8.174790130831812718e+00 3.041406859129824980e+01
2.042035224833365525e+00 2.055589421147458601e-02 8.229439202323701963e+00 2.967117794782312501e+01
2.059488517353308623e+00 2.070928880416795723e-02 8.283011543409877220e+00 2.892802880681068345e+01
2.076941809873252165e+00 2.086459851794580239e-02 8.335527375787425086e+00 2.818543333815337704e+01
2.094395102393195263e+00 2.102192030575888645e-02 8.387006650396143570e+00 2.744419730430922044e+01
2.111848394913138804e+00 2.118135618190899669e-02 8.437469414312728233e+00 2.670528349008488789e+01
2.129301687433081902e+00 2.134301365745452927e-02 8.486935969528570212e+00 2.596969211187248661e+01
2.146754979953025444e+00 2.150700618120514676e-02 8.535426872057520598e+00 2.523837934986195819e+01
2.164208272472968542e+00 2.167345363685171250e-02 8.582962820060949127e+00 2.451219652141262273e+01
2.181661564992911639e+00 2.184248291198651395e-02 8.629564467688350504e+00 2.379185038688951082e+01
2.199114857512855181e+00 2.201422850674561449e-02 8.675252407474358662e+00 2.307799569340040335e+01
2.216568150032798723e+00 2.218883320614140064e-02 8.720047170338741438e+00 2.237124467515779358e+01
2.234021442552741821e+00 2.236644883214683466e-02 8.763969225586407674e+00 2.167216641756935402e+01
2.251474735072684918e+00 2.254723708375930627e-02 8.807038980907403669e+00 2.098128670568884147e+01
2.268928027592628460e+00 2.273137046903475275e-02 8.849276782376911399e+00 2.029908890903347185e+01
2.286381320112572002e+00 2.291903336721747703e-02 8.890702914455252071e+00 1.962601221499305382e+01
2.303834612632515100e+00 2.311042312283795655e-02 8.931337599987884346e+00 1.896246189273319516e+01
2.321287905152458197e+00 2.330575163490623478e-02 8.971201099155887704e+00 1.830882054879905141e+01
2.338741197672401295e+00 2.350524590239555858e-02 9.010313327950701279e+00 1.766534150735057906e+01
2.356194490192344837e+00 2.370915260637507585e-02 9.048693909338119568e+00 1.703201151601507490e+01
2.373647782712288379e+00 2.391773416396730453e-02 9.086365317647254969e+00 1.641066362138484891e+01
2.391101075232231477e+00 2.413125938391383687e-02 9.123347514948552117e+00 1.580147946601450570e+01
2.408554367752174574e+00 2.434980585940245759e-02 9.159660244461010237e+00 1.521929210432105606e+01
2.426007660272118116e+00 2.457334084163072946e-02 9.195317926371240347e+00 1.466811674904476881e+01
2.443460952792061214e+00 2.480178385261376170e-02 9.230332707568113193e+00 1.414786465731886445e+01
2.460914245312004311e+00 2.503500980572171200e-02 9.264715292891477105e+00 1.365820826583021130e+01
2.478367537831947853e+00 2.527292288719549390e-02 9.298477715099442875e+00 1.319553883140058836e+01
2.495820830351891395e+00 2.551543631658092365e-02 9.331631634913065909e+00 1.275723854708583538e+01
2.513274122871834493e+00 2.576244907255346647e-02 9.364188468605993521e+00 1.234220983614063449e+01
2.530727415391777591e+00 2.601384359997877330e-02 9.396159901028811490e+00 1.194969096528864583e+01
2.548180707911721132e+00 2.626952594168614763e-02 9.427557736892214990e+00 1.157705723590747304e+01
2.565634000431664674e+00 2.652940103250719939e-02 9.458393289251576519e+00 1.122288329307333044e+01
2.583087292951607772e+00 2.679337089758491303e-02 9.488678425228314950e+00 1.088631523386155742e+01
2.600540585471550870e+00 2.706133505206454598e-02 9.518424512081880451e+00 1.056618497333379558e+01
2.617993877991494411e+00 2.733319161197874866e-02 9.547643308315361566e+00 1.026168522192973320e+01
2.635447170511437509e+00 2.760883818375121923e-02 9.576360199382012439e+00 9.976662901785402937e+00
2.652900463031380607e+00 2.788817250468026213e-02 9.604600572576577733e+00 9.710138863429802925e+00
2.670353755551324149e+00 2.817109351012516208e-02 9.632388303222340298e+00 9.460669462291599885e+00
2.687807048071267690e+00 2.845750334211558097e-02 9.659745873031260643e+00 9.226888973096675883e+00
2.705260340591210788e+00 2.874730883369133738e-02 9.686694480695138054e+00 9.007521827855049068e+00
2.722713633111153886e+00 2.904040966931799306e-02 9.713254144193578909e+00 8.801775027117926697e+00
2.740166925631096984e+00 2.933668853519837486e-02 9.739443795124456571e+00 8.609207831860938853e+00
2.757620218151040525e+00 2.963606774396994673e-02 9.765281363556711725e+00 8.427810552590189630e+00
2.775073510670984067e+00 2.993842489352666753e-02 9.790783855693105053e+00 8.258094397800784137e+00
2.792526803190927165e+00 3.024368652389339274e-02 9.815967424185071621e+00 8.098007196151353781e+00
2.809980095710870263e+00 3.055172264890696279e-02 9.840847432182835419e+00 7.948430165673204151e+00
2.827433388230813804e+00 3.086244352620906573e-02 9.865438512174652175e+00 7.807707989037891316e+00
2.844886680750756902e+00 3.117575668414450732e-02 9.889754619622587839e+00 7.675398554886540659e+00
2.862339973270700000e+00 3.149156148699065044e-02 9.913809082111136206e+00 7.551226154101202681e+00
2.879793265790643542e+00 3.180975317603713937e-02 9.937614644555777588e+00 7.434842395811219973e+00
2.897246558310587083e+00 3.213022621711927179e-02 9.961183510874542790e+00 7.325851864223281495e+00
2.914699850830530625e+00 3.245287991627517771e-02 9.984527382383385330e+00 7.223767305337744915e+00
2.932153143350473723e+00 3.277762894498770230e-02 1.000765749322729548e+01 7.127911298886501434e+00
2.949606435870416821e+00 3.310437356414294707e-02 1.003058464318049126e+01 7.038301619992654246e+00
2.967059728390360362e+00 3.343298720237572463e-02 1.005331922806258227e+01 6.955220743919296567e+00
2.984513020910303460e+00 3.376340169778462713e-02 1.007587126799254129e+01 6.877163511960302067e+00
3.001966313430246558e+00 3.409550156914593899e-02 1.009825043368111430e+01 6.804893320003027490e+00
3.019419605950190100e+00 3.442917614942327814e-02 1.012046607094308293e+01 6.738080046950636337e+00
3.036872898470133197e+00 3.476433644541488538e-02 1.014252722359340986e+01 6.676084369653498385e+00
3.054326190990076295e+00 3.510088331737054590e-02 1.016444265487562681e+01 6.618933738130539091e+00
3.071779483510019837e+00 3.543871470685400898e-02 1.018622086755679490e+01 6.566520796370802771e+00
3.089232776029963379e+00 3.577774073756392892e-02 1.020787012281083150e+01 6.518460704213117296e+00
3.106686068549906921e+00 3.611786988656404823e-02 1.022939845800082637e+01 6.474655860670823770e+00
3.124139361069850018e+00 3.645897886005749350e-02 1.025081370346101828e+01 6.435588292446874803e+00
3.141592653589793116e+00 3.680096006410698423e-02 1.027212349837036065e+01 6.400844328334477140e+00
3.159045946109736214e+00 3.714372428080284227e-02 1.029333530580181844e+01 6.369983670956800736e+00
3.176499238629679756e+00 3.748717948268784350e-02 1.031445642702460219e+01 6.342978162702451073e+00
3.193952531149622853e+00 3.783122803866301870e-02 1.033549401513056942e+01 6.319859862387987803e+00
3.211405823669565951e+00 3.817576671398766053e-02 1.035645508805056636e+01 6.300668860723828146e+00
3.228859116189509493e+00 3.852068948730334730e-02 1.037734654102179732e+01 6.285402530655615827e+00
3.246312408709452590e+00 3.886589670540631369e-02 1.039817515856557506e+01 6.273901650178885347e+00
3.263765701229396576e+00 3.921128944697633428e-02 1.041894762604092328e+01 6.266120408480587045e+00
3.281218993749339674e+00 3.955676740925296447e-02 1.043967054080277812e+01 6.262060865858322778e+00
3.298672286269282772e+00 3.990222890803551969e-02 1.046035042301230078e+01 6.261734386626325310e+00
3.316125578789226314e+00 4.024757087768308927e-02 1.048099372614931823e+01 6.265161772456657729e+00
3.333578871309169411e+00 4.059268887111452950e-02 1.050160684726945348e+01 6.272373449627285602e+00
3.351032163829112509e+00 4.093747705980846363e-02 1.052219613704669499e+01 6.283409712475552134e+00
3.368485456349056051e+00 4.128182908168855081e-02 1.054276790964068944e+01 6.298305517831581213e+00
3.385938748868999149e+00 4.162565073677346877e-02 1.056332845243075980e+01 6.316872815883173509e+00
3.403392041388942246e+00 4.196886976480282416e-02 1.058388403567321134e+01 6.338748482939839057e+00
3.420845333908885788e+00 4.231143609405854655e-02 1.060444092207936961e+01 6.363564332479250574e+00
3.438298626428828886e+00 4.265331928013281482e-02 1.062500537635410147e+01 6.390996870590428536e+00
