# angles(rad), pulling distance(m),                                     elastic band force(n), cable force(n)
0.000000000000000000e+00 3.398290636880831701e-04 2.501771231288264438e-02 1.841766924163491109e-02
1.745329251994329547e-02 6.723417716206431596e-04 5.048738543976855064e-02 3.867212210255761839e-02
3.490658503988659095e-02 9.976807837621046171e-04 7.643671035051438634e-02 6.096659047859976505e-02
5.235987755982988295e-02 1.315902124723455609e-03 1.028936918286773861e-01 8.554600677337220738e-02
6.981317007977318190e-02 1.627143704849745142e-03 1.298868408288680609e-01 1.126473797696009721e-01
8.726646259971647390e-02 1.931500573578018038e-03 1.574466635133892622e-01 1.425695482684335991e-01
1.047197551196597659e-01 2.229029229946757375e-03 1.856063081490903210e-01 1.756673707807580864e-01
1.221730476396030718e-01 2.519862142509236499e-03 2.144014529354478782e-01 2.122772428088021412e-01
1.396263401595463638e-01 2.804102704156617287e-03 2.438706089452691572e-01 2.528372790838265827e-01
1.570796326794896558e-01 3.081800749261878660e-03 2.740555019857093821e-01 2.978896020476907158e-01
1.745329251994329478e-01 3.353082188596430424e-03 3.050014258190770766e-01 3.479246835175414110e-01
1.919862177193762398e-01 3.618068132846035279e-03 3.367576720874653762e-01 4.035745970550531081e-01
2.094395102393195318e-01 3.876801819455552925e-03 3.693780246003054435e-01 4.657005251559405146e-01
2.268928027592628516e-01 4.129395825488484974e-03 4.029213251915023664e-01 5.350606428776428780e-01
2.443460952792061436e-01 4.375962709427282278e-03 4.374521495931514847e-01 6.126363411184824193e-01
2.617993877991494078e-01 4.616609626527418304e-03 4.730415659511815196e-01 6.995839983391817229e-01
2.792526803190927276e-01 4.851387204925219562e-03 5.097681307296926256e-01 7.974369785662608345e-01
2.967059728390360474e-01 5.080408525418881813e-03 5.477182162258069642e-01 9.075990431259395308e-01
3.141592653589793116e-01 5.303779426903638960e-03 5.869645493769592992e-01 1.031298441275984690e+00
3.316125578789225758e-01 5.521603381942514002e-03 6.275415454626288581e-01 1.169005990607765000e+00
3.490658503988658956e-01 5.733977390550214909e-03 6.694743547267272277e-01 1.321863282988542387e+00
3.665191429188092154e-01 5.940980899886143252e-03 7.127797719781354679e-01 1.491145030965872031e+00
3.839724354387524796e-01 6.142909796937934264e-03 7.574760182903004235e-01 1.676646343508612746e+00
4.014257279586957439e-01 6.340058521449406202e-03 8.035882354339832778e-01 1.879557440620649000e+00
4.188790204786390636e-01 6.532706754877287518e-03 8.511407044501144714e-01 2.100919445590638812e+00
4.363323129985823834e-01 6.721111118530756490e-03 9.001574256299555987e-01 2.341918451062094952e+00
4.537856055185257032e-01 6.905509625342218759e-03 9.506617719791746746e-01 2.603738621489442018e+00
4.712388980384689674e-01 7.086122918616327357e-03 1.002676711468695858e+00 2.887615165481992374e+00
4.886921905584122872e-01 7.263156117876670009e-03 1.056221931529039537e+00 3.194634452327436591e+00
5.061454830783556069e-01 7.436800254678258872e-03 1.111317008397874062e+00 3.526067573089734175e+00
5.235987755982988157e-01 7.607233590065753774e-03 1.167985387423521315e+00 3.883503099933463876e+00
5.410520681182421354e-01 7.774622777364940777e-03 1.226250237058905679e+00 4.268333387023888648e+00
5.585053606381854552e-01 7.939123883707542226e-03 1.286134940091250733e+00 4.682023766240252627e+00
5.759586531581287749e-01 8.100883305923740896e-03 1.347662906149167394e+00 5.126066624807428695e+00
5.934119456780720947e-01 8.260038625636697759e-03 1.410853989879335968e+00 5.601659609386602234e+00
6.108652381980153034e-01 8.416719338023665939e-03 1.475727066002099797e+00 6.110193962657747946e+00
6.283185307179586232e-01 8.571047492986183167e-03 1.542305191432077116e+00 6.653600473057559306e+00
6.457718232379019430e-01 8.723138344138943109e-03 1.610612217058133178e+00 7.233579742000931567e+00
6.632251157578451517e-01 8.873100863090182741e-03 1.680677494413326478e+00 7.852437770066347689e+00
6.806784082777884715e-01 9.021038224463472435e-03 1.752517500414899398e+00 8.510417286001421999e+00
6.981317007977317912e-01 9.167048296655962505e-03 1.826099767911798066e+00 9.202691265118176034e+00
7.155849933176750000e-01 9.311223984885565880e-03 1.901373775942204913e+00 9.927056817731227056e+00
7.330382858376184307e-01 9.453653672667976238e-03 1.978284182196289542e+00 1.068250885806800810e+01
7.504915783575616395e-01 9.594421495822090529e-03 2.056774548562320781e+00 1.146831599947669567e+01
7.679448708775049592e-01 9.733607707713545776e-03 2.136787934838825453e+00 1.228366201636161215e+01
7.853981633974482790e-01 9.871288917838387522e-03 2.218266898734590153e+00 1.312757843930057078e+01
8.028514559173914877e-01 1.000753839274799890e-02 2.301153252914938996e+00 1.399889457709119611e+01
8.203047484373349185e-01 1.014242625869311160e-02 2.385387684159256949e+00 1.489620830343021574e+01
8.377580409572781273e-01 1.027601976332675679e-02 2.470911874296894961e+00 1.581833918724026056e+01
8.552113334772214470e-01 1.040838343410381041e-02 2.557669091179573861e+00 1.676413556340094502e+01
8.726646259971647668e-01 1.053957932274538281e-02 2.645604191945924111e+00 1.773237512360021384e+01
8.901179185171079755e-01 1.066966711584219768e-02 2.734663743504786027e+00 1.872181246702825419e+01
9.075712110370514063e-01 1.079870437040742273e-02 2.824795854719792221e+00 1.973110905026234363e+01
9.250245035569946150e-01 1.092674659097550745e-02 2.915944546584406716e+00 2.075756963536872846e+01
9.424777960769379348e-01 1.105384743874514297e-02 3.008047832912403408e+00 2.179773744272605640e+01
9.599310885968812546e-01 1.118005881354375980e-02 3.101046306317561729e+00 2.284996680421216553e+01
9.773843811168245743e-01 1.130543100022441891e-02 3.194885853812674092e+00 2.391332964335767741e+01
9.948376736367677831e-01 1.143001279355389428e-02 3.289512050576424151e+00 2.498551403344798771e+01
1.012290966156711214e+00 1.155385156693079958e-02 3.384872451538814442e+00 2.606476028334807538e+01
1.029744258676654312e+00 1.167699343450274985e-02 3.480897770578303518e+00 2.714384031639978190e+01
1.047197551196597631e+00 1.179948328811480929e-02 3.577533963120645755e+00 2.822431823470309098e+01
1.064650843716540951e+00 1.192136492847104857e-02 3.674735346535961344e+00 2.930624812108287713e+01
1.082104136236484271e+00 1.204268114616317831e-02 3.772435480573511857e+00 3.038072395525658109e+01
1.099557428756427591e+00 1.216347377259136345e-02 3.870581966810293650e+00 3.144927227488783217e+01
1.117010721276370910e+00 1.228378381156996699e-02 3.969116056072342413e+00 3.250711570544962115e+01
1.134464013796314230e+00 1.240365146560621669e-02 4.067988041983569225e+00 3.355451139908070246e+01
1.151917306316257550e+00 1.252311622859299083e-02 4.167128172939432496e+00 3.458171451115026684e+01
1.169370598836200648e+00 1.264221697007920399e-02 4.266490971807029631e+00 3.559427750087979092e+01
1.186823891356144189e+00 1.276099195784706486e-02 4.366022910900955623e+00 3.658672037077392503e+01
1.204277183876087287e+00 1.287947896939336048e-02 4.465655115469034264e+00 3.755036591677863811e+01
1.221730476396030607e+00 1.299771533163485149e-02 4.565333765769196361e+00 3.848784750432178470e+01
1.239183768915973927e+00 1.311573796487072209e-02 4.665004875286277830e+00 3.939635975526253731e+01
1.256637061435917246e+00 1.323358348447298445e-02 4.764613190507099638e+00 4.027264627345284964e+01
1.274090353955860566e+00 1.335128821775709469e-02 4.864102480303076348e+00 4.111356338509544628e+01
1.291543646475803886e+00 1.346888827375099761e-02 4.963415995834489003e+00 4.191616129984921457e+01
1.308996938995747206e+00 1.358641962027206003e-02 5.062496803686739710e+00 4.267765901659545591e+01
1.326450231515690303e+00 1.370391809721855855e-02 5.161287963028073023e+00 4.339542390785139503e+01
1.343903524035633845e+00 1.382141950647834336e-02 5.259732598973611672e+00 4.406691495350898435e+01
1.361356816555576943e+00 1.393895966228459946e-02 5.357773925560366024e+00 4.468968580233150334e+01
1.378810109075520263e+00 1.405657441474730297e-02 5.455355250915256526e+00 4.526139659520001146e+01
1.396263401595463582e+00 1.417429975001779224e-02 5.552419979392418270e+00 4.577979212822817345e+01
1.413716694115406902e+00 1.429217181789202602e-02 5.648911616595225560e+00 4.624273927906362047e+01
1.431169986635350000e+00 1.441022697849120640e-02 5.744773780438923616e+00 4.664823143607971190e+01
1.448623279155293542e+00 1.452850189782860756e-02 5.839950219059604208e+00 4.699438111528639439e+01
1.466076571675236861e+00 1.464703356308541538e-02 5.934384825925850038e+00 4.727945876868811581e+01
1.483529864195180181e+00 1.476585936110327672e-02 6.028020425464171161e+00 4.750124265799098566e+01
1.500983156715123279e+00 1.488501715481580986e-02 6.120797251572533959e+00 4.765681912705314005e+01
1.518436449235066599e+00 1.500454530235776664e-02 6.212657755168627283e+00 4.774589766478517561e+01
1.535889741755009918e+00 1.512448276719926578e-02 6.303545323538465084e+00 4.776771856255174953e+01
1.553343034274953460e+00 1.524486916481752885e-02 6.393405656700055673e+00 4.772246480619930509e+01
1.570796326794896558e+00 1.536574481290399821e-02 6.482187927987177467e+00 4.761119185437350865e+01
1.588249619314839878e+00 1.548715085121541921e-02 6.569839566492095884e+00 4.743233621052169724e+01
1.605702911834782975e+00 1.560912926589932276e-02 6.656336643049319157e+00 4.720127423335559769e+01
1.623156204354726295e+00 1.573172299852329883e-02 6.741690127498451091e+00 4.693769666213420066e+01
1.640609496874669837e+00 1.585497603425880045e-02 6.825906229728857966e+00 4.663992358708603803e+01
1.658062789394613157e+00 1.597893344854708214e-02 6.908982855212991936e+00 4.630420733075096962e+01
1.675516081914556255e+00 1.610364155959709970e-02 6.990934366306644776e+00 4.594068745421011357e+01
1.692969374434499574e+00 1.622914796989313041e-02 7.071755509078204938e+00 4.553929638308324712e+01
1.710422666954442894e+00 1.635550170254304950e-02 7.151458185261406975e+00 4.511068601011087509e+01
1.727875959474386436e+00 1.648275331070006566e-02 7.230046092224958976e+00 4.465123842968389312e+01
1.745329251994329534e+00 1.661095496176233019e-02 7.307519411822815947e+00 4.415994506847087564e+01
1.762782544514272853e+00 1.674016062013652592e-02 7.383887825950904649e+00 4.364327464161555525e+01
1.780235837034215951e+00 1.687042611022819549e-02 7.459158812173427577e+00 4.310107303074767771e+01
1.797689129554159271e+00 1.700180933019938140e-02 7.533331533047285866e+00 4.252960896935589830e+01
1.815142422074102813e+00 1.713437034436073383e-02 7.606410483320870775e+00 4.193302963075438328e+01
1.832595714594046132e+00 1.726817159394333084e-02 7.678401630498584041e+00 4.131328695324178568e+01
1.850049007113989230e+00 1.740327804508031567e-02 7.749310353002977436e+00 4.067116653551808980e+01
1.867502299633932550e+00 1.753975739582419938e-02 7.819141855549641029e+00 4.000769504122236242e+01
1.884955592153875870e+00 1.767768027923563579e-02 7.887901232497841697e+00 3.932394398669627122e+01
1.902408884673818967e+00 1.781712048551694141e-02 7.955594533238532939e+00 3.862160474885281758e+01
1.919862177193762509e+00 1.795815520992227049e-02 8.022227362193182998e+00 3.790156685980925744e+01
1.937315469713705829e+00 1.810086531671709770e-02 8.087799930679699045e+00 3.716189601218577110e+01
1.954768762233649149e+00 1.824533561993823758e-02 8.152316261491282745e+00 3.640592710613686478e+01
1.972222054753592246e+00 1.839165521941842768e-02 8.215785919129082515e+00 3.563795427031382701e+01
1.989675347273535566e+00 1.853991780625011132e-02 8.278215875911330457e+00 3.485765832171742318e+01
2.007128639793478886e+00 1.869022209480293226e-02 8.339604678950742311e+00 3.406145985533466103e+01
2.024581932313422428e+00 1.884267217145120521e-02 8.399955927878098194e+00 3.325336676293159854e+01
2.042035224833365525e+00 1.899737800828035089e-02 8.459277689997474425e+00 3.243699585698038135e+01
2.059488517353308623e+00 1.915445593258809087e-02 8.517576023742517322e+00 3.161236640472109372e+01
2.076941809873252165e+00 1.931402917082883711e-02 8.574855598654810507e+00 3.077985312826806563e+01
2.094395102393195263e+00 1.947622849935512837e-02 8.631120956795188093e+00 2.994051308346131179e+01
2.111848394913138804e+00 1.964119289108046812e-02 8.686376556279649108e+00 2.909542713703622852e+01
2.129301687433081902e+00 1.980907026801427204e-02 8.740626731675861905e+00 2.824564821817571669e+01
2.146754979953025444e+00 1.998001836863074268e-02 8.793875691445951048e+00 2.739221618890923082e+01
2.164208272472968542e+00 2.015420567583909098e-02 8.846127722747180400e+00 2.653627006879258943e+01
2.181661564992911639e+00 2.033181246144281223e-02 8.897387557281662751e+00 2.567912101021999405e+01
2.199114857512855181e+00 2.051303197139188808e-02 8.947660409195266951e+00 2.482207389541538944e+01
2.216568150032798723e+00 2.069807176892302786e-02 8.996951975077612573e+00 2.396640381889730875e+01
2.234021442552741821e+00 2.088715521383162355e-02 9.045268433962068144e+00 2.311335826357896295e+01
2.251474735072684918e+00 2.108052327106954213e-02 9.092616447325760021e+00 2.226413872117450765e+01
2.268928027592628460e+00 2.127843606727584588e-02 9.139003159089559958e+00 2.141995431701384334e+01
2.286381320112572002e+00 2.148117641932600907e-02 9.184428062811655025e+00 2.057813140190739887e+01
2.303834612632515100e+00 2.168904312770156967e-02 9.228894946727496773e+00 1.974246879044087066e+01
2.321287905152458197e+00 2.190231867518854444e-02 9.272409147851538691e+00 1.891831864075563985e+01
2.338741197672401295e+00 2.212109310750001029e-02 9.314976862030215798e+00 1.812447955889875928e+01
2.356194490192344837e+00 2.234545669043797034e-02 9.356602471710075974e+00 1.735906858488375093e+01
2.373647782712288379e+00 2.257550484063695212e-02 9.397290090125405726e+00 1.662057934369199330e+01
2.391101075232231477e+00 2.281131970319260488e-02 9.437045827467363424e+00 1.590979937120228449e+01
2.408554367752174574e+00 2.305283945744980925e-02 9.475886381375676848e+00 1.523886428904379997e+01
2.426007660272118116e+00 2.329989615565026748e-02 9.513830608770430075e+00 1.461182613723130785e+01
2.443460952792061214e+00 2.355237220428954906e-02 9.550898322673873508e+00 1.402231888742665689e+01
2.460914245312004311e+00 2.381015160844147591e-02 9.587108873137825782e+00 1.346711506282947646e+01
2.478367537831947853e+00 2.407309624378665969e-02 9.622481428830962358e+00 1.294461702178016793e+01
2.495820830351891395e+00 2.434105815127749275e-02 9.657055120260091385e+00 1.245998160590696457e+01
2.513274122871834493e+00 2.461391353852636701e-02 9.690880186728808354e+00 1.201349439208632219e+01
2.530727415391777591e+00 2.489153665943344765e-02 9.724000786632579718e+00 1.160078953315272976e+01
2.548180707911721132e+00 2.517379814803718738e-02 9.756455074778909164e+00 1.121792440938079061e+01
2.565634000431664674e+00 2.546056575828969937e-02 9.788277266563085277e+00 1.086191136226893938e+01
2.583087292951607772e+00 2.575170574530658701e-02 9.819499874641849146e+00 1.053068660395403278e+01
2.600540585471550870e+00 2.604708391762268135e-02 9.850153820822862727e+00 1.022235606411338615e+01
2.617993877991494411e+00 2.634656655471119546e-02 9.880268436056303116e+00 9.935149671698354723e+00
2.635447170511437509e+00 2.665002209738675729e-02 9.909871459974244345e+00 9.667385188182143096e+00
2.652900463031380607e+00 2.695732381040943232e-02 9.938989040200786107e+00 9.417432395745317208e+00
2.670353755551324149e+00 2.726835008504892299e-02 9.967645732295428829e+00 9.183782141555326461e+00
2.687807048071267690e+00 2.758295224187921543e-02 9.995864499753070120e+00 8.965958107171667635e+00
2.705260340591210788e+00 2.790100007244688401e-02 1.002366673003742115e+01 8.762213225120509819e+00
2.722713633111153886e+00 2.822237751505885656e-02 1.005107256585927367e+01 8.571169225030514482e+00
2.740166925631096984e+00 2.854693234323930212e-02 1.007810121687561811e+01 8.392957277063574750e+00
2.757620218151040525e+00 2.887454313382924881e-02 1.010477097180265815e+01 8.225973415788983445e+00
2.775073510670984067e+00 2.920509370513653044e-02 1.013109919841582141e+01 8.069381773609990205e+00
2.792526803190927165e+00 2.953842868321862256e-02 1.015710234354975583e+01 7.923459095087654447e+00
2.809980095710870263e+00 2.987441822766652086e-02 1.018279597130762681e+01 7.786937824242341932e+00
2.827433388230813804e+00 3.021293579791996253e-02 1.020819497337713955e+01 7.659217365310917458e+00
2.844886680750756902e+00 3.055385567304468725e-02 1.023331364100737595e+01 7.539812808226059815e+00
2.862339973270700000e+00 3.089705551010857310e-02 1.025816566507194239e+01 7.428213898575293683e+00
2.879793265790643542e+00 3.124237210134682766e-02 1.028276413606897322e+01 7.324880465876254299e+00
2.897246558310587083e+00 3.158968351386513829e-02 1.030712154412113080e+01 7.228520464472911300e+00
2.914699850830530625e+00 3.193889086323013077e-02 1.033124978116345005e+01 7.138304623788875425e+00
2.932153143350473723e+00 3.228981663120761986e-02 1.035516023868288471e+01 7.055526883105510905e+00
2.949606435870416821e+00 3.264235339112883660e-02 1.037886394255548872e+01 6.978492611192375072e+00
2.967059728390360362e+00 3.299638380288013456e-02 1.040237156289542142e+01 6.907175011485716887e+00
2.984513020910303460e+00 3.335177224333849694e-02 1.042569341405494221e+01 6.841710150273400792e+00
3.001966313430246558e+00 3.370837531022774503e-02 1.044883945462441233e+01 6.782029779787049684e+00
3.019419605950190100e+00 3.406605061773227555e-02 1.047181928743230017e+01 6.727908004008797072e+00
3.036872898470133197e+00 3.442466332427914638e-02 1.049464215954517066e+01 6.679012525350755070e+00
3.054326190990076295e+00 3.478409233130982242e-02 1.051731698518165103e+01 6.634921615612357826e+00
3.071779483510019837e+00 3.514421822295294567e-02 1.053985245078175836e+01 6.595484741490737157e+00
3.089232776029963379e+00 3.550491081464492160e-02 1.056225704510429786e+01 6.560796913401325980e+00
3.106686068549906921e+00 3.586603622828227200e-02 1.058453905922934268e+01 6.530829454768475095e+00
3.124139361069850018e+00 3.622746043080879441e-02 1.060670658655822862e+01 6.505498427702961273e+00
3.141592653589793116e+00 3.658904925387407303e-02 1.062876752281356119e+01 6.484729279124191059e+00
3.159045946109736214e+00 3.695066939691610264e-02 1.065072956603921384e+01 6.468438985349375336e+00
3.176499238629679756e+00 3.731219116698716864e-02 1.067260021660031910e+01 6.456504953207938158e+00
3.193952531149622853e+00 3.767348439181798098e-02 1.069438678424679523e+01 6.448888744639475590e+00
3.211405823669565951e+00 3.803441714731303769e-02 1.071609645559050605e+01 6.445603193295402988e+00
3.228859116189509493e+00 3.839485575755065272e-02 1.073773633156665142e+01 6.446681234467617649e+00
3.246312408709452590e+00 3.875466479478292814e-02 1.075931342783437294e+01 6.452165387305477395e+00
3.263765701229396576e+00 3.911370707943577496e-02 1.078083467477676471e+01 6.462108091399896281e+00
3.281218993749339674e+00 3.947184368010888539e-02 1.080230691750086791e+01 6.476572226264900145e+00
3.298672286269282772e+00 3.982893482800697188e-02 1.082373691583767084e+01 6.495615068300939932e+00
3.316125578789226314e+00 4.018485350539069412e-02 1.084513134434210357e+01 6.519056231419842362e+00
3.333578871309169411e+00 4.053949585804876576e-02 1.086649679229304866e+01 6.546526941431137558e+00
3.351032163829112509e+00 4.089278151450423393e-02 1.088783977596246366e+01 6.577651322304698844e+00
3.368485456349056051e+00 4.124465976208278872e-02 1.090916679985982363e+01 6.611947815528605332e+00
3.385938748868999149e+00 4.159512134671703582e-02 1.093048437580375776e+01 6.648701056018971656e+00
3.403392041388942246e+00 4.194419873383876257e-02 1.095179902292819030e+01 6.687162794363640472e+00
3.420845333908885788e+00 4.229193939937470059e-02 1.097311726768234408e+01 6.727070567601228568e+00
3.438298626428828886e+00 4.263837787176834315e-02 1.099444564383074230e+01 6.768696057760997142e+00
