# angles(rad), pulling distance(m),                                     elastic band force(n), cable force(n)
0.000000000000000000e+00 3.264342608433473680e-04 2.295803359656514719e-02 1.614632316042189167e-02
1.745329251994329547e-02 6.459016670293472786e-04 4.629512040509565357e-02 3.381857500279900064e-02
3.490658503988659095e-02 9.587842682245130898e-04 7.003190590659570669e-02 5.312958670172873016e-02
5.235987755982988295e-02 1.265346950941108285e-03 9.418973630619061066e-02 7.422363527432507269e-02
6.981317007977318190e-02 1.565687858534388398e-03 1.187914554571342651e-01 9.730522718689545159e-02
8.726646259971647390e-02 1.859873950618032594e-03 1.438614618622033603e-01 1.225961344665673913e-01
1.047197551196597659e-01 2.147999728270977206e-03 1.694258662113691805e-01 1.503257149123340408e-01
1.221730476396030718e-01 2.430132974092632722e-03 1.955126670983103887e-01 1.807762854255216267e-01
1.396263401595463638e-01 2.706365841864654016e-03 2.221519435015216481e-01 2.142383371746980347e-01
1.570796326794896558e-01 2.976770545328167716e-03 2.493760747440623149e-01 2.510698556875522458e-01
1.745329251994329478e-01 3.241432376378809450e-03 2.772199916191935287e-01 2.916510617389487803e-01
1.919862177193762398e-01 3.500434213983785736e-03 3.057214411568722201e-01 3.364263477160590599e-01
2.094395102393195318e-01 3.753848093505383291e-03 3.349213999797570618e-01 3.859177368964260002e-01
2.268928027592628516e-01 4.001770863873612381e-03 3.648643477618374042e-01 4.406660225823098576e-01
2.443460952792061436e-01 4.244264866912566235e-03 3.955956964688756017e-01 5.013397916168569335e-01
2.617993877991494078e-01 4.481418627345024920e-03 4.271538013771442599e-01 5.684145362588430839e-01
2.792526803190927276e-01 4.713322161116473286e-03 4.595447774445180489e-01 6.418661952241744295e-01
2.967059728390360474e-01 4.940042650573138287e-03 4.927919701412556974e-01 7.226497097794475355e-01
3.141592653589793116e-01 5.161661807956195551e-03 5.269031075171143330e-01 8.109977718766091526e-01
3.316125578789225758e-01 5.378265797883887561e-03 5.618956846318966525e-01 9.077477326945271319e-01
3.490658503988658956e-01 5.589938072295560188e-03 5.977852078337969610e-01 1.013558631896131379e+00
3.665191429188092154e-01 5.796759601825111734e-03 6.345806991816504983e-01 1.128978626130743734e+00
3.839724354387524796e-01 5.998809979957381647e-03 6.723037133795609632e-01 1.255197973869796924e+00
4.014257279586957439e-01 6.196167420822355082e-03 7.109625687022982365e-01 1.392650764160869636e+00
4.188790204786390636e-01 6.388912401943456013e-03 7.505718522316725538e-01 1.542432551617668457e+00
4.363323129985823834e-01 6.577143084929610792e-03 7.911505440840143066e-01 1.705559031497496436e+00
4.537856055185257032e-01 6.761118699822853302e-03 8.327101115647171925e-01 1.881068428200080467e+00
4.712388980384689674e-01 6.941083232939287452e-03 8.752615073287768332e-01 2.069496591936708096e+00
4.886921905584122872e-01 7.117258703593817327e-03 9.188217251272140507e-01 2.271830142742291336e+00
5.061454830783556069e-01 7.289853784229577763e-03 9.634064842388058159e-01 2.488671511848000062e+00
5.235987755982988157e-01 7.459061228805488782e-03 1.009030799790253230e+00 2.720704146684674640e+00
5.410520681182421354e-01 7.625061180360395707e-03 1.055708979455703300e+00 2.968589626435090167e+00
5.585053606381854552e-01 7.788021665470829490e-03 1.103453106552430452e+00 3.232894485360400250e+00
5.759586531581287749e-01 7.948099865011900786e-03 1.152277377219111054e+00 3.514476219105883814e+00
5.934119456780720947e-01 8.105443079920594818e-03 1.202197061122221911e+00 3.814164933346263275e+00
6.108652381980153034e-01 8.260189529084620980e-03 1.253223608655138488e+00 4.132416244887954448e+00
6.283185307179586232e-01 8.412469164308039940e-03 1.305370769311094747e+00 4.470156441009554449e+00
6.457718232379019430e-01 8.562404368776092151e-03 1.358653074526196436e+00 4.828230171504926282e+00
6.632251157578451517e-01 8.710110527129744443e-03 1.413088767915224864e+00 5.207803639272622576e+00
6.806784082777884715e-01 8.855696657105215433e-03 1.468694036508100931e+00 5.609540304048781678e+00
6.981317007977317912e-01 8.999265863007224059e-03 1.525476903362646075e+00 6.033393536525276879e+00
7.155849933176750000e-01 9.140915822210871761e-03 1.583449413402338690e+00 6.480519834378384303e+00
7.330382858376184307e-01 9.280739208812680344e-03 1.642629253409524814e+00 6.952380339974004286e+00
7.504915783575616395e-01 9.418824044572849871e-03 1.703037981731775785e+00 7.450373402304015791e+00
7.679448708775049592e-01 9.555254094677374452e-03 1.764693106359032759e+00 7.974956640276126052e+00
7.853981633974482790e-01 9.690109126811424778e-03 1.827596911126758261e+00 8.524917273931523098e+00
8.028514559173914877e-01 9.823465264759799129e-03 1.891735595962038330e+00 9.098451338479920381e+00
8.203047484373349185e-01 9.955395194052427468e-03 1.957079276883586072e+00 9.693233710692277683e+00
8.377580409572781273e-01 1.008596846103206046e-02 2.023585790928524641e+00 1.030698242746113280e+01
8.552113334772214470e-01 1.021525165806622289e-02 2.091214745831073252e+00 1.093929226548924838e+01
8.726646259971647668e-01 1.034330865266146031e-02 2.159926644835493903e+00 1.158957868299158278e+01
8.901179185171079755e-01 1.047020078422443261e-02 2.229681716667634372e+00 1.225699390444679970e+01
9.075712110370514063e-01 1.059598700888486796e-02 2.300439915534926882e+00 1.294060501975439159e+01
9.250245035569946150e-01 1.072072412526814400e-02 2.372161198682191330e+00 1.363944028326518954e+01
9.424777960769379348e-01 1.084446684781196872e-02 2.444807449128884702e+00 1.435285167420319929e+01
9.599310885968812546e-01 1.096726803313416605e-02 2.518342946275681449e+00 1.508027793499100788e+01
9.773843811168245743e-01 1.108917874895599433e-02 2.592728891426642424e+00 1.581998660321553807e+01
9.948376736367677831e-01 1.121024842516741248e-02 2.667921041268352944e+00 1.656952632388243529e+01
1.012290966156711214e+00 1.133052498888218948e-02 2.743883478567267886e+00 1.732940069608817524e+01
1.029744258676654312e+00 1.145005491598185404e-02 2.820581204924092589e+00 1.809857754218257853e+01
1.047197551196597631e+00 1.156888340674341702e-02 2.897964940909103060e+00 1.887218733856576236e+01
1.064650843716540951e+00 1.168705442983255724e-02 2.975996598306346996e+00 1.965134437392751465e+01
1.082104136236484271e+00 1.180461082161141442e-02 3.054639767618100077e+00 2.043500559995993271e+01
1.099557428756427591e+00 1.192159441005009521e-02 3.133855141789105403e+00 2.122088328523763678e+01
1.117010721276370910e+00 1.203804603619925556e-02 3.213603537424867262e+00 2.200739781776675841e+01
1.134464013796314230e+00 1.215400568058534574e-02 3.293845558934637374e+00 2.279282827997344896e+01
1.151917306316257550e+00 1.226951253151549633e-02 3.374542255610831099e+00 2.357560704227827841e+01
1.169370598836200648e+00 1.238460501549531675e-02 3.455655163949539421e+00 2.435417421460537923e+01
1.186823891356144189e+00 1.249932092321446274e-02 3.537147111049923076e+00 2.512720432511079593e+01
1.204277183876087287e+00 1.261369744303780793e-02 3.618975433249358442e+00 2.589121335752733444e+01
1.221730476396030607e+00 1.272777120697633421e-02 3.701095679354483803e+00 2.664371522017940563e+01
1.239183768915973927e+00 1.284157840175521696e-02 3.783472372297238540e+00 2.738578544842210860e+01
1.256637061435917246e+00 1.295515478611485721e-02 3.866071802358454601e+00 2.811634912055057356e+01
1.274090353955860566e+00 1.306853574919017089e-02 3.948848393667880874e+00 2.882954957865397816e+01
1.291543646475803886e+00 1.318175640511743026e-02 4.031760359213373945e+00 2.952475175603548152e+01
1.308996938995747206e+00 1.329485160372189008e-02 4.114777778633681216e+00 3.020448585663664076e+01
1.326450231515690303e+00 1.340785599797564460e-02 4.197852181705656882e+00 3.086022154116403726e+01
1.343903524035633845e+00 1.352080412517523908e-02 4.280946475714135779e+00 3.149430042863317780e+01
1.361356816555576943e+00 1.363373041540837625e-02 4.364027951041140163e+00 3.210677334677806272e+01
1.378810109075520263e+00 1.374666926687161637e-02 4.447044736301905665e+00 3.268842857311670969e+01
1.396263401595463582e+00 1.385965511673938576e-02 4.529971629587780768e+00 3.324809915175284658e+01
1.413716694115406902e+00 1.397272244985164891e-02 4.612755694399672812e+00 3.377303203812757459e+01
1.431169986635350000e+00 1.408590588270462567e-02 4.695367630063816300e+00 3.427121786261747616e+01
1.448623279155293542e+00 1.419924022574123659e-02 4.777762476764388921e+00 3.473466173599116047e+01
1.466076571675236861e+00 1.431276049455994237e-02 4.859902312461060525e+00 3.516478436859070911e+01
1.483529864195180181e+00 1.442650200484158797e-02 4.941750946664511979e+00 3.556094556477630420e+01
1.500983156715123279e+00 1.454050042590329141e-02 5.023261426959411580e+00 3.591702830135518809e+01
1.518436449235066599e+00 1.465479179820422528e-02 5.104407094455716276e+00 3.624075138076671010e+01
1.535889741755009918e+00 1.476941264166571621e-02 5.185132288637353426e+00 3.651786169226331680e+01
1.553343034274953460e+00 1.488439999840877187e-02 5.265411562495525999e+00 3.676086039147057960e+01
1.570796326794896558e+00 1.499979146435926475e-02 5.345197338583717261e+00 3.695860127008067053e+01
1.588249619314839878e+00 1.511562531024518256e-02 5.424450421398564259e+00 3.711388628980967752e+01
1.605702911834782975e+00 1.523194051107286569e-02 5.503142269975201728e+00 3.723094102258679072e+01
1.623156204354726295e+00 1.534877680696452099e-02 5.581217450381589451e+00 3.729616349100185602e+01
1.640609496874669837e+00 1.546617482643242343e-02 5.658643581088777630e+00 3.731978439845497064e+01
1.658062789394613157e+00 1.558417610647161965e-02 5.735388681590273485e+00 3.730154288475331015e+01
1.675516081914556255e+00 1.570282320161939596e-02 5.811417951778479640e+00 3.723966988673709722e+01
1.692969374434499574e+00 1.582215978760274228e-02 5.886739240609296431e+00 3.715514257090504202e+01
1.710422666954442894e+00 1.594223069356584185e-02 5.961364628358480466e+00 3.705053637575110059e+01
1.727875959474386436e+00 1.606308206489433926e-02 6.035306649092360587e+00 3.692657886102757203e+01
1.745329251994329534e+00 1.618476142317825522e-02 6.108577314910177414e+00 3.678352132814018915e+01
1.762782544514272853e+00 1.630731776779045794e-02 6.181187713326295352e+00 3.662140087235812302e+01
1.780235837034215951e+00 1.643080174013441738e-02 6.253147810031556730e+00 3.644012357075500574e+01
1.797689129554159271e+00 1.655526567073138319e-02 6.324469686491415388e+00 3.624126632435563522e+01
1.815142422074102813e+00 1.668076378573841653e-02 6.395165158207433365e+00 3.602517994281959801e+01
1.832595714594046132e+00 1.680735229468875366e-02 6.465246004687105419e+00 3.579234137954374972e+01
1.850049007113989230e+00 1.693508955682506908e-02 6.534723932835012405e+00 3.554319798927725316e+01
1.867502299633932550e+00 1.706403626479923233e-02 6.603610633197436464e+00 3.527821331354381584e+01
1.884955592153875870e+00 1.719425556501369759e-02 6.671917818907409092e+00 3.499787886643620283e+01
1.902408884673818967e+00 1.732581332315133449e-02 6.739657198676626493e+00 3.470264353531058532e+01
1.919862177193762509e+00 1.745877823809065948e-02 6.806840641293889327e+00 3.439305683291659932e+01
1.937315469713705829e+00 1.759322215734061834e-02 6.873479926356152347e+00 3.406950576400470965e+01
1.954768762233649149e+00 1.772922022267246420e-02 6.939585009607970534e+00 3.373149784696133224e+01
1.972222054753592246e+00 1.786685122257609948e-02 7.005167582429072226e+00 3.338033680060066644e+01
1.989675347273535566e+00 1.800619778628586090e-02 7.070239706101420829e+00 3.301663853777188251e+01
2.007128639793478886e+00 1.814734678392614792e-02 7.134813340360738998e+00 3.264074381336304498e+01
2.024581932313422428e+00 1.829038957473886479e-02 7.198900801077481759e+00 3.225323483074560471e+01
2.042035224833365525e+00 1.843542246898616926e-02 7.262513776895175965e+00 3.185416078627840264e+01
2.059488517353308623e+00 1.858254705313046318e-02 7.325662040934430408e+00 3.144293277115226815e+01
2.076941809873252165e+00 1.873187070439715982e-02 7.388357612383759765e+00 3.102102705438720065e+01
2.094395102393195263e+00 1.888350705202938504e-02 7.450613265912357619e+00 3.058915657763025919e+01
2.111848394913138804e+00 1.903757651639903861e-02 7.512440484869929769e+00 3.014700574601820549e+01
2.129301687433081902e+00 1.919420695922631828e-02 7.573849709375379824e+00 2.969437031385043113e+01
2.146754979953025444e+00 1.935353430200283803e-02 7.634853207364619365e+00 2.923244335637362568e+01
2.164208272472968542e+00 1.951570330025615557e-02 7.695463454534186454e+00 2.876159728970551299e+01
2.181661564992911639e+00 1.968086839848056518e-02 7.755690699697572299e+00 2.828102851047985666e+01
2.199114857512855181e+00 1.984919462164566259e-02 7.815546431010113260e+00 2.779158460511534301e+01
2.216568150032798723e+00 2.002085862462823704e-02 7.875043162304606881e+00 2.729397653669595769e+01
2.234021442552741821e+00 2.019604997206233057e-02 7.934192639639143785e+00 2.678804373502133984e+01
2.251474735072684918e+00 2.037497207282710013e-02 7.993006084461233840e+00 2.627379291332638900e+01
2.268928027592628460e+00 2.055784486775082825e-02 8.051494603157122398e+00 2.575123286233036168e+01
2.286381320112572002e+00 2.074490329999378879e-02 8.109669851600109780e+00 2.522110619395474629e+01
2.303834612632515100e+00 2.093640786077668320e-02 8.167543777588223364e+00 2.468284944005613823e+01
2.321287905152458197e+00 2.113261975709464918e-02 8.225128085850592186e+00 2.413912306446199452e+01
2.338741197672401295e+00 2.133369221964918558e-02 8.282434356053350655e+00 2.360519263128185230e+01
2.356194490192344837e+00 2.153971940230451840e-02 8.339474175765099417e+00 2.308831763584327490e+01
2.373647782712288379e+00 2.175079241431539592e-02 8.396259122889929927e+00 2.258844585565083563e+01
2.391101075232231477e+00 2.196698070361037883e-02 8.452800755357971596e+00 2.210735628620884441e+01
2.408554367752174574e+00 2.218827583519221089e-02 8.509110635757762608e+00 2.165194501944753114e+01
2.426007660272118116e+00 2.241461255582191670e-02 8.565200343449996367e+00 2.122587895825862603e+01
2.443460952792061214e+00 2.264591902201363097e-02 8.621081467224946948e+00 2.082759416438586797e+01
2.460914245312004311e+00 2.288210099888072710e-02 8.676765603824087236e+00 2.045703095261809423e+01
2.478367537831947853e+00 2.312306177792586986e-02 8.732264395203866769e+00 2.011240675195944760e+01
2.495820830351891395e+00 2.336873136239205062e-02 8.787589553152155730e+00 1.978978313775788678e+01
2.513274122871834493e+00 2.361903725348572097e-02 8.842752763723584764e+00 1.948794055964954808e+01
2.530727415391777591e+00 2.387390675195828413e-02 8.897765570798398471e+00 1.920555671340752468e+01
2.548180707911721132e+00 2.413326598578576995e-02 8.952639429074919164e+00 1.894152214987745353e+01
2.565634000431664674e+00 2.439704020353852809e-02 9.007385858219576491e+00 1.869486016741107548e+01
2.583087292951607772e+00 2.466515348721736237e-02 9.062016460683553376e+00 1.846471058773196461e+01
2.600540585471550870e+00 2.493752932853125770e-02 9.116542870323614878e+00 1.825023646188894944e+01
2.617993877991494411e+00 2.521408201048911876e-02 9.170976728243129372e+00 1.805123134855108447e+01
2.635447170511437509e+00 2.549472340101770901e-02 9.225329678232526476e+00 1.786706806477247511e+01
2.652900463031380607e+00 2.577937874387937686e-02 9.279613359795254368e+00 1.769619258097533177e+01
2.670353755551324149e+00 2.606797217031054520e-02 9.333839401485299447e+00 1.753806976036025489e+01
2.687807048071267690e+00 2.636042766940384710e-02 9.388019372945070273e+00 1.739213737703236262e+01
2.705260340591210788e+00 2.665666890361522920e-02 9.442164762176460613e+00 1.725788402131006194e+01
2.722713633111153886e+00 2.695661961067271489e-02 9.496287040717165340e+00 1.713483849936968184e+01
2.740166925631096984e+00 2.726020352463195268e-02 9.550397838139627282e+00 1.702262929493926435e+01
2.757620218151040525e+00 2.756734545796868385e-02 9.604508964269250271e+00 1.692086750684460128e+01
2.775073510670984067e+00 2.787796982297744905e-02 9.658632151396448151e+00 1.682919996659136430e+01
2.792526803190927165e+00 2.819198588106736070e-02 9.712778718938050559e+00 1.674798518650980839e+01
2.809980095710870263e+00 2.850931117832013889e-02 9.766959607164087842e+00 1.667634290002547104e+01
2.827433388230813804e+00 2.882987040181561947e-02 9.821186341014625398e+00 1.661380546169902672e+01
2.844886680750756902e+00 2.915358983668652620e-02 9.875471840539210788e+00 1.656047997607722166e+01
2.862339973270700000e+00 2.948040102921994227e-02 9.929830130989032000e+00 1.651622106921861288e+01
2.879793265790643542e+00 2.981023176703254465e-02 9.984272188053113339e+00 1.648009884737067310e+01
2.897246558310587083e+00 3.014299318440414807e-02 1.003880300392887115e+01 1.645094922795496117e+01
2.914699850830530625e+00 3.047859463613923972e-02 1.009342166707522814e+01 1.642690146833103881e+01
2.932153143350473723e+00 3.081697830667824017e-02 1.014812369431939842e+01 1.640513379146327111e+01
2.949606435870416821e+00 3.115807847471158132e-02 1.020290294352902905e+01 1.638543206318853152e+01
2.967059728390360362e+00 3.150178342027499384e-02 1.025775167010160516e+01 1.636940707037306098e+01
2.984513020910303460e+00 3.184801767093717317e-02 1.031266070688159964e+01 1.635477324876983118e+01
3.001966313430246558e+00 3.219672550194121324e-02 1.036762059560000537e+01 1.634042093543405727e+01
3.019419605950190100e+00 3.254783111351364222e-02 1.042262202562213247e+01 1.632725587671454903e+01
3.036872898470133197e+00 3.290125116210206729e-02 1.047765583491133867e+01 1.631558015227278347e+01
3.054326190990076295e+00 3.325690205148076201e-02 1.053271301002903293e+01 1.630535567254279172e+01
3.071779483510019837e+00 3.361470192837642118e-02 1.058778468613466828e+01 1.629645750496052514e+01
3.089232776029963379e+00 3.397457125911731296e-02 1.064286214698575073e+01 1.628874075035077595e+01
3.106686068549906921e+00 3.433643290215741828e-02 1.069793682493782683e+01 1.628206351010851449e+01
3.124139361069850018e+00 3.470021208352298825e-02 1.075300030094450143e+01 1.627629079399701340e+01
3.141592653589793116e+00 3.506583474783508264e-02 1.080804415638990790e+01 1.627132227459757985e+01
3.159045946109736214e+00 3.543322558241998599e-02 1.086305952202692104e+01 1.626701417895123214e+01
3.176499238629679756e+00 3.580230790486804704e-02 1.091803749624260789e+01 1.626335230506209939e+01
3.193952531149622853e+00 3.617300406926937661e-02 1.097296928666648341e+01 1.626034761261232475e+01
3.211405823669565951e+00 3.654523620958181895e-02 1.102784621017049815e+01 1.625798009762441865e+01
3.228859116189509493e+00 3.691892631900112881e-02 1.108265969286905239e+01 1.625622835651216391e+01
3.246312408709452590e+00 3.729399624996100615e-02 1.113740126891153004e+01 1.625507267184580584e+01
3.263765701229396576e+00 3.767036771413307533e-02 1.119206249895013627e+01 1.625447094421283367e+01
3.281218993749339674e+00 3.804796228242689204e-02 1.124663483824434529e+01 1.625434325191772444e+01
3.298672286269282772e+00 3.842670138498994331e-02 1.130110963118797152e+01 1.625460912343158171e+01
3.316125578789226314e+00 3.880650645540541926e-02 1.135547821064487728e+01 1.625521267241771284e+01
3.333578871309169411e+00 3.918729939220857994e-02 1.140973198318834747e+01 1.625610519445750413e+01
3.351032163829112509e+00 3.956900224198548616e-02 1.146386262211300178e+01 1.625731137826555184e+01
3.368485456349056051e+00 3.995153708409824450e-02 1.151786211765412737e+01 1.625887829277113639e+01
3.385938748868999149e+00 4.033482603068500039e-02 1.157172133891504906e+01 1.626041933931096395e+01
3.403392041388942246e+00 4.071879122665995887e-02 1.162543018605013501e+01 1.626158983385860068e+01
3.420845333908885788e+00 4.110335484971335690e-02 1.167898021010243426e+01 1.626284010410598313e+01
3.438298626428828886e+00 4.148843911031147719e-02 1.173236404502514674e+01 1.626445558849842143e+01
