# angles(rad), pulling distance(m),                                     elastic band force(n), cable force(n)
0.000000000000000000e+00 3.259378843761398590e-04 2.275772634983041012e-02 1.588996350040980735e-02
1.745329251994329547e-02 6.452147536562786263e-04 4.589142369964772927e-02 3.325133791287539914e-02
3.490658503988659095e-02 9.579370678549353887e-04 6.942142084197235052e-02 5.223438686214290638e-02
5.235987755982988295e-02 1.264217322774919845e-03 9.336887043959146704e-02 7.300327993467568832e-02
6.981317007977318190e-02 1.564169520364941694e-03 1.177564339388791625e-01 9.574167261342399204e-02
8.726646259971647390e-02 1.857906282592713650e-03 1.426082994098014922e-01 1.206550465488284152e-01
1.047197551196597659e-01 2.145543164137093430e-03 1.679503590819936276e-01 1.479715674488456256e-01
1.221730476396030718e-01 2.427191292322635700e-03 1.938103753823603725e-01 1.779503914638590478e-01
1.396263401595463638e-01 2.702941591984141766e-03 2.202181746375405647e-01 2.108965014837376195e-01
1.570796326794896558e-01 2.972898450695334645e-03 2.472058644976161956e-01 2.471326431380249100e-01
1.745329251994329478e-01 3.237176288181335161e-03 2.748080818864920283e-01 2.870203755490000619e-01
1.919862177193762398e-01 3.495889963818265504e-03 3.030622706465138649e-01 3.309751051932841581e-01
2.094395102393195318e-01 3.749157041700788579e-03 3.320090040813720167e-01 3.794640906140216985e-01
2.268928027592628516e-01 3.997088026966835218e-03 3.616924209217933783e-01 4.330344949309980485e-01
2.443460952792061436e-01 4.239767177294797955e-03 3.921603439105377231e-01 4.923501314949597085e-01
2.617993877991494078e-01 4.477306300330782286e-03 4.234616663153607519e-01 5.580095596047452977e-01
2.792526803190927276e-01 4.709829789226283731e-03 4.556303943804382861e-01 6.303470812617723018e-01
2.967059728390360474e-01 4.937449150539062123e-03 4.886734740525964793e-01 7.093982007357363395e-01
3.141592653589793116e-01 5.160261079133177629e-03 5.226148914144087554e-01 7.961104354205180700e-01
3.316125578789225758e-01 5.378369880144515461e-03 5.574623640970455263e-01 8.906634860397079079e-01
3.490658503988658956e-01 5.591898000277117399e-03 5.932376453049144072e-01 9.939320203211418070e-01
3.665191429188092154e-01 5.800959577514061376e-03 6.299495248480947440e-01 1.106211451198224616e+00
3.839724354387524796e-01 6.005641308615764819e-03 6.676201791608913361e-01 1.228721725483198579e+00
4.014257279586957439e-01 6.206061365096423275e-03 7.062564007610590000e-01 1.361494417549694580e+00
4.188790204786390636e-01 6.402336945011967775e-03 7.458838282092863370e-01 1.505916186816918190e+00
4.363323129985823834e-01 6.594563902861743168e-03 7.865060467886980655e-01 1.662078040669407786e+00
4.537856055185257032e-01 6.782859344364070703e-03 8.281454122784115413e-01 1.831348078602525797e+00
4.712388980384689674e-01 6.967337374838179255e-03 8.708177237542549243e-01 2.014321437150305538e+00
4.886921905584122872e-01 7.148093813969690589e-03 9.145316879526408371e-01 2.211694679179040168e+00
5.061454830783556069e-01 7.325237327037707746e-03 9.593072413272704102e-01 2.424786086873255364e+00
5.235987755982988157e-01 7.498884830683496747e-03 1.005162777495976822e+00 2.654358809149639065e+00
5.410520681182421354e-01 7.669147242722398027e-03 1.052108183413261511e+00 2.900913075749663950e+00
5.585053606381854552e-01 7.836131310567297226e-03 1.100157491531454923e+00 3.165679634672284415e+00
5.759586531581287749e-01 7.999942089377090268e-03 1.149327264430621831e+00 3.449843837473770325e+00
5.934119456780720947e-01 8.160687292239643745e-03 1.199633288281106269e+00 3.754313020694396652e+00
6.108652381980153034e-01 8.318477175393260148e-03 1.251090796171192343e+00 4.079983661089211289e+00
6.283185307179586232e-01 8.473421046170373158e-03 1.303715648893419399e+00 4.427915971801881234e+00
6.457718232379019430e-01 8.625630965328335079e-03 1.357520833304909136e+00 4.798744995233060529e+00
6.632251157578451517e-01 8.775231406126810657e-03 1.412497866642373312e+00 5.190823094438751895e+00
6.806784082777884715e-01 8.922354766399197973e-03 1.468611317802690497e+00 5.601343614123318382e+00
6.981317007977317912e-01 9.067126319180785973e-03 1.525832335652561600e+00 6.030858800416843302e+00
7.155849933176750000e-01 9.209662341558540535e-03 1.584136218012737185e+00 6.479856120351734639e+00
7.330382858376184307e-01 9.350072594165427867e-03 1.643495006481775267e+00 6.947916596432823333e+00
7.504915783575616395e-01 9.488461061208217431e-03 1.703877222340933972e+00 7.434426035305542690e+00
7.679448708775049592e-01 9.624926253135877505e-03 1.765249094663207785e+00 7.938774754525592670e+00
7.853981633974482790e-01 9.759561447284664099e-03 1.827578921540191637e+00 8.460839567530863192e+00
8.028514559173914877e-01 9.892454907421344840e-03 1.890836093354054670e+00 9.000363411873966157e+00
8.203047484373349185e-01 1.002369061365698463e-02 1.954990541568273787e+00 9.556952376446250952e+00
8.377580409572781273e-01 1.015334842346967033e-02 2.020012738727634538e+00 1.013017779273932462e+01
8.552113334772214470e-01 1.028150435689031972e-02 2.085873698458230230e+00 1.071956951117880052e+01
8.726646259971647668e-01 1.040823103973443839e-02 2.152544897973289739e+00 1.132458825063942598e+01
8.901179185171079755e-01 1.053359775043922510e-02 2.219997337798439663e+00 1.194449754627925486e+01
9.075712110370514063e-01 1.065767071190094027e-02 2.288200915840694627e+00 1.257836420613336692e+01
9.250245035569946150e-01 1.078051344827611786e-02 2.357124347189845093e+00 1.322512856020843230e+01
9.424777960769379348e-01 1.090218680973793590e-02 2.426734961621074049e+00 1.388360687258543891e+01
9.599310885968812546e-01 1.102274917327187263e-02 2.497000802100770578e+00 1.455295457845757312e+01
9.773843811168245743e-01 1.114225676538770082e-02 2.567896408662923236e+00 1.523355715379866560e+01
9.948376736367677831e-01 1.126076369126688577e-02 2.639394485239831667e+00 1.592410128119726309e+01
1.012290966156711214e+00 1.137832201736219302e-02 2.711458044811293711e+00 1.662130831799736441e+01
1.029744258676654312e+00 1.149498208031136254e-02 2.784058010303839925e+00 1.732576773641662982e+01
1.047197551196597631e+00 1.161079255913935113e-02 2.857169793060470919e+00 1.803746770784972497e+01
1.064650843716540951e+00 1.172580048516233715e-02 2.930763373635691948e+00 1.875395704826953391e+01
1.082104136236484271e+00 1.184005143540096602e-02 3.004803748592903556e+00 1.947264296305452902e+01
1.099557428756427591e+00 1.195358970862702222e-02 3.079260502208035266e+00 2.019334397249711799e+01
1.117010721276370910e+00 1.206645833178448049e-02 3.154104532539695693e+00 2.091510365757743273e+01
1.134464013796314230e+00 1.217869909579740069e-02 3.229306349804788923e+00 2.163649794677716187e+01
1.151917306316257550e+00 1.229035276667211907e-02 3.304836296057584555e+00 2.235610400087951533e+01
1.169370598836200648e+00 1.240145916259195562e-02 3.380664718081746845e+00 2.307252150900991694e+01
1.186823891356144189e+00 1.251205715403588131e-02 3.456762073690905268e+00 2.378437884301697380e+01
1.204277183876087287e+00 1.262218471681216155e-02 3.533099134806362507e+00 2.449036351858434202e+01
1.221730476396030607e+00 1.273187911569585370e-02 3.609644836047765981e+00 2.518841417788782877e+01
1.239183768915973927e+00 1.284117694414895969e-02 3.686365086966573834e+00 2.587598111080063390e+01
1.256637061435917246e+00 1.295011412435011222e-02 3.763230897315010370e+00 2.655326601223439908e+01
1.274090353955860566e+00 1.305872595928718807e-02 3.840213574041989375e+00 2.721894168386944202e+01
1.291543646475803886e+00 1.316704729199816640e-02 3.917284803979270702e+00 2.787169898129447176e+01
1.308996938995747206e+00 1.327511253589329886e-02 3.994417466089618340e+00 2.851055914319174889e+01
1.326450231515690303e+00 1.338295567475615219e-02 4.071575186643121569e+00 2.913059317228364264e+01
1.343903524035633845e+00 1.349061030268885672e-02 4.148727275569476625e+00 2.973239347369444374e+01
1.361356816555576943e+00 1.359810976991958700e-02 4.225846772509467719e+00 3.031598068685621783e+01
1.378810109075520263e+00 1.370548721606170382e-02 4.302907806691531611e+00 3.088046302897387818e+01
1.396263401595463582e+00 1.381277557011374897e-02 4.379873351615364285e+00 3.141993762351173203e+01
1.413716694115406902e+00 1.392000757628090654e-02 4.456713193473882839e+00 3.193572042860729354e+01
1.431169986635350000e+00 1.402721593076434146e-02 4.533401275446252043e+00 3.242824221117846406e+01
1.448623279155293542e+00 1.413443332688625077e-02 4.609910834162395332e+00 3.289599042691747144e+01
1.466076571675236861e+00 1.424169245511787939e-02 4.686201587867058649e+00 3.333178789019365240e+01
1.483529864195180181e+00 1.434902601832529698e-02 4.762248213900144300e+00 3.374088199227566776e+01
1.500983156715123279e+00 1.445646685972989433e-02 4.838024830454201286e+00 3.412195471140890390e+01
1.518436449235066599e+00 1.456404802684015468e-02 4.913498395830561805e+00 3.447064689531446646e+01
1.535889741755009918e+00 1.467180277192439534e-02 4.988634340311995707e+00 3.478508092973768129e+01
1.553343034274953460e+00 1.477976456138288194e-02 5.063406640258489411e+00 3.506819977285132950e+01
1.570796326794896558e+00 1.488796719776488454e-02 5.137788644981595709e+00 3.531882697461757203e+01
1.588249619314839878e+00 1.499644490517346510e-02 5.211747716468545732e+00 3.553320135006463687e+01
1.605702911834782975e+00 1.510523233102173575e-02 5.285249328983737449e+00 3.570948987863368984e+01
1.623156204354726295e+00 1.521436455362360461e-02 5.358278724189015740e+00 3.585667415538626557e+01
1.640609496874669837e+00 1.532387720837829863e-02 5.430838753363304683e+00 3.598322214611565073e+01
1.658062789394613157e+00 1.543380659178668693e-02 5.502937652643849376e+00 3.609187418900892652e+01
1.675516081914556255e+00 1.554418966455644625e-02 5.574583524672922508e+00 3.618271242160189871e+01
1.692969374434499574e+00 1.565506406215834423e-02 5.645782310898810330e+00 3.625479430110519985e+01
1.710422666954442894e+00 1.576646824505710878e-02 5.716541603715823427e+00 3.630908918433858190e+01
1.727875959474386436e+00 1.587844161053287434e-02 5.786869437806195116e+00 3.634596423850120317e+01
1.745329251994329534e+00 1.599102449534501105e-02 5.856773750467192841e+00 3.636554029687187040e+01
1.762782544514272853e+00 1.610425820173664452e-02 5.926262400375565953e+00 3.636796730653316700e+01
1.780235837034215951e+00 1.621818519917821166e-02 5.995343186579069616e+00 3.635336927940416984e+01
1.797689129554159271e+00 1.633284921866821199e-02 6.064023865477561337e+00 3.632188002741096966e+01
1.815142422074102813e+00 1.644829525336801573e-02 6.132312166575538015e+00 3.627367373394987737e+01
1.832595714594046132e+00 1.656456964718693373e-02 6.200215806789484141e+00 3.620893728749388174e+01
1.850049007113989230e+00 1.668172034589679095e-02 6.267742503582645952e+00 3.612782102693776665e+01
1.867502299633932550e+00 1.679979694132166870e-02 6.334899986292781726e+00 3.603050500982290316e+01
1.884955592153875870e+00 1.691885069005991463e-02 6.401696008155504103e+00 3.591720807207924082e+01
1.902408884673818967e+00 1.703893476798760617e-02 6.468138350289135197e+00 3.578811351629330773e+01
1.919862177193762509e+00 1.716010445384136621e-02 6.534234847652507838e+00 3.564340646230368037e+01
1.937315469713705829e+00 1.728241713636580537e-02 6.599993342589118406e+00 3.548328920948852527e+01
1.954768762233649149e+00 1.740593251558241947e-02 6.665421826891450685e+00 3.530802804761370339e+01
1.972222054753592246e+00 1.753071292440028239e-02 6.730528107383427994e+00 3.511766430081727464e+01
1.989675347273535566e+00 1.765682335851921289e-02 6.795318419492669904e+00 3.491152848347285698e+01
2.007128639793478886e+00 1.778433167078741564e-02 6.859800600124366099e+00 3.469067181002494493e+01
2.024581932313422428e+00 1.791330898905067054e-02 6.923982832225422435e+00 3.445541271796061267e+01
2.042035224833365525e+00 1.804382977387788967e-02 6.987873120496714385e+00 3.420583385724778225e+01
2.059488517353308623e+00 1.817597209665374261e-02 7.051479862398449150e+00 3.394231690581610650e+01
2.076941809873252165e+00 1.830981811262749614e-02 7.114810949141224583e+00 3.366470836658005794e+01
2.094395102393195263e+00 1.844545413713939708e-02 7.177872276177216015e+00 3.337211870220207999e+01
2.111848394913138804e+00 1.858297114681092821e-02 7.240671749064865992e+00 3.306575457682452424e+01
2.129301687433081902e+00 1.872246519229757780e-02 7.303218474914449310e+00 3.274637294921713249e+01
2.146754979953025444e+00 1.886403761958987610e-02 7.365520365540004555e+00 3.241350402693392851e+01
2.164208272472968542e+00 1.900779582680029930e-02 7.427583632294913585e+00 3.206635038518321323e+01
2.181661564992911639e+00 1.915385350167835010e-02 7.489416248256751452e+00 3.170598183515206614e+01
2.199114857512855181e+00 1.930233139232569867e-02 7.551026816826529320e+00 3.133281685522326754e+01
2.216568150032798723e+00 1.945335783094687826e-02 7.612423095858165567e+00 3.094653206201136086e+01
2.234021442552741821e+00 1.960706946514702981e-02 7.673611821827535984e+00 3.054671387786570591e+01
2.251474735072684918e+00 1.976361207337849063e-02 7.734601180644339991e+00 3.013418340479586277e+01
2.268928027592628460e+00 1.992314138226854853e-02 7.795399687617822870e+00 2.970919046576811695e+01
2.286381320112572002e+00 2.008582408389678747e-02 7.856014026616177759e+00 2.927091157321262571e+01
2.303834612632515100e+00 2.025183897408378009e-02 7.916451757632620989e+00 2.881984750847031052e+01
2.321287905152458197e+00 2.042137814655969191e-02 7.976721341879549954e+00 2.835649554659633509e+01
2.338741197672401295e+00 2.059464835143197739e-02 8.036830705788823082e+00 2.788066083996113065e+01
2.356194490192344837e+00 2.077187257827929623e-02 8.096787207875493664e+00 2.739213750626507604e+01
2.373647782712288379e+00 2.095329274111304430e-02 8.156598016056721079e+00 2.689076625936020193e+01
2.391101075232231477e+00 2.113916914670822475e-02 8.216271017797215137e+00 2.637718074951312275e+01
2.408554367752174574e+00 2.132978543017528469e-02 8.275814446521286172e+00 2.585143087816200946e+01
2.426007660272118116e+00 2.152545889150665748e-02 8.335236262757209857e+00 2.531231747619499473e+01
2.443460952792061214e+00 2.172648752422962765e-02 8.394544155229672455e+00 2.476576174100544492e+01
2.460914245312004311e+00 2.193308513423079115e-02 8.453745606360381970e+00 2.422457875401259386e+01
2.478367537831947853e+00 2.214534703447408256e-02 8.512848120051689449e+00 2.370329870743077905e+01
2.495820830351891395e+00 2.236325435671086131e-02 8.571859305081105163e+00 2.321333538983210687e+01
2.513274122871834493e+00 2.258670727725656593e-02 8.630786909927030237e+00 2.276057074105395017e+01
2.530727415391777591e+00 2.281562628537719961e-02 8.689638775587948061e+00 2.233984229013032063e+01
2.548180707911721132e+00 2.304994520587876072e-02 8.748422698581894252e+00 2.194729325020539079e+01
2.565634000431664674e+00 2.328959787041822230e-02 8.807146447990552574e+00 2.158075988894293218e+01
2.583087292951607772e+00 2.353451823454580719e-02 8.865817857542095837e+00 2.123833321831427057e+01
2.600540585471550870e+00 2.378463868779724655e-02 8.924444749878025718e+00 2.091841969369378162e+01
2.617993877991494411e+00 2.403989580857121902e-02 8.983034683342658866e+00 2.061902926788786061e+01
2.635447170511437509e+00 2.430022036851143055e-02 9.041595002077189136e+00 2.033917527073812792e+01
2.652900463031380607e+00 2.456550373325890393e-02 9.100133244021343160e+00 2.008063347921010688e+01
2.670353755551324149e+00 2.483567475745132591e-02 9.158657236625430187e+00 1.983932917979746691e+01
2.687807048071267690e+00 2.511067186947767149e-02 9.217174968887507092e+00 1.961359423259666457e+01
2.705260340591210788e+00 2.539042847033515585e-02 9.275694518040806358e+00 1.940291880926928059e+01
2.722713633111153886e+00 2.567488719365287192e-02 9.334223837377688682e+00 1.920580115694336243e+01
2.740166925631096984e+00 2.596398066010292827e-02 9.392770481434272511e+00 1.902205528317360361e+01
2.757620218151040525e+00 2.625759560164653977e-02 9.451341695683348476e+00 1.885382795878142304e+01
2.775073510670984067e+00 2.655566331206390962e-02 9.509944927205612686e+00 1.869754706246622433e+01
2.792526803190927165e+00 2.685813360086045792e-02 9.568587972334253067e+00 1.855161174710941552e+01
2.809980095710870263e+00 2.716494101756342441e-02 9.627278809779344471e+00 1.841653835279869611e+01
2.827433388230813804e+00 2.747600069271686693e-02 9.686025351252961713e+00 1.829296869583639307e+01
2.844886680750756902e+00 2.779122468535556376e-02 9.744835418254801596e+00 1.818054581036719597e+01
2.862339973270700000e+00 2.811056385144944034e-02 9.803716697804990332e+00 1.807656074809839808e+01
2.879793265790643542e+00 2.843395770539332984e-02 9.862676707241803342e+00 1.798127900823085312e+01
2.897246558310587083e+00 2.876129223864772044e-02 9.921722826262865169e+00 1.789726311700272632e+01
2.914699850830530625e+00 2.909251732947939345e-02 9.980862739853570531e+00 1.782073207417716532e+01
2.932153143350473723e+00 2.942758083505138747e-02 1.004010475489138443e+01 1.775174040082702831e+01
2.949606435870416821e+00 2.976637426440674819e-02 1.009945773339548936e+01 1.769316774808516612e+01
2.967059728390360362e+00 3.010882502881224651e-02 1.015892843599343287e+01 1.764220362537667697e+01
2.984513020910303460e+00 3.045488333001584308e-02 1.021851818500735476e+01 1.759584820884060008e+01
3.001966313430246558e+00 3.080448166193016507e-02 1.027822265255259815e+01 1.755316758583733616e+01
3.019419605950190100e+00 3.115754425589409640e-02 1.033803225470399667e+01 1.751286051688984813e+01
3.036872898470133197e+00 3.151399386084468429e-02 1.039793566035021932e+01 1.747432874365554767e+01
3.054326190990076295e+00 3.187375410410433346e-02 1.045792163155007160e+01 1.743740720532360555e+01
3.071779483510019837e+00 3.223674982403469669e-02 1.051797903977605309e+01 1.740192862398853890e+01
3.089232776029963379e+00 3.260290579170790903e-02 1.057809686591435394e+01 1.736779526769025139e+01
3.106686068549906921e+00 3.297214692626802834e-02 1.063826420026485131e+01 1.733490500208747775e+01
3.124139361069850018e+00 3.334440114867680272e-02 1.069847024254112000e+01 1.730302876206236817e+01
3.141592653589793116e+00 3.371960022214622738e-02 1.075870430187041649e+01 1.727190920896678605e+01
3.159045946109736214e+00 3.409767672153470042e-02 1.081895579679369845e+01 1.724143820946506267e+01
3.176499238629679756e+00 3.447856104036634700e-02 1.087921406306635852e+01 1.721159274449628995e+01
3.193952531149622853e+00 3.486218138921204357e-02 1.093946781815409253e+01 1.718219632218574588e+01
3.211405823669565951e+00 3.524846507413434415e-02 1.099970590220508448e+01 1.715322791348290465e+01
3.228859116189509493e+00 3.563733924298017469e-02 1.105991751134285828e+01 1.712470211805239728e+01
3.246312408709452590e+00 3.602873089475716606e-02 1.112009219766628476e+01 1.709663598710118038e+01
3.263765701229396576e+00 3.642256693461473627e-02 1.118021986924957467e+01 1.706904702704039778e+01
3.281218993749339674e+00 3.681877434097722418e-02 1.124029073331238493e+01 1.704193222601003299e+01
3.298672286269282772e+00 3.721728019718494734e-02 1.130029456957338319e+01 1.701508307823455368e+01
3.316125578789226314e+00 3.761801169149421586e-02 1.136022022807661003e+01 1.698815010990316310e+01
3.333578871309169411e+00 3.802089611707732547e-02 1.142005591666831954e+01 1.696086684265964450e+01
3.351032163829112509e+00 3.842586087202255751e-02 1.147979053811094374e+01 1.693334873370475080e+01
3.368485456349056051e+00 3.883283345933417896e-02 1.153941377208193941e+01 1.690573735606778527e+01
3.385938748868999149e+00 3.924174148693244935e-02 1.159891448363265276e+01 1.687772355670233893e+01
3.403392041388942246e+00 3.965251266765360688e-02 1.165828119726884182e+01 1.684913338159037366e+01
3.420845333908885788e+00 4.006507413720620386e-02 1.171750454185939461e+01 1.682051913322085213e+01
3.438298626428828886e+00 4.047935062392454819e-02 1.177657499532271324e+01 1.679186841447355150e+01
