# angles(rad), pulling distance(m),                                     elastic band force(n), cable force(n)
0.000000000000000000e+00 3.199676204138004608e-04 2.299157820508671707e-02 1.652081756513319385e-02
1.745329251994329547e-02 6.337751689826590790e-04 4.638792620876697886e-02 3.458514843568856467e-02
3.490658503988659095e-02 9.417473598979201081e-04 7.021203205756215704e-02 5.431460803740612714e-02
5.235987755982988295e-02 1.244187788384818480e-03 9.448718316578914866e-02 7.583941937311519665e-02
6.981317007977318190e-02 1.541374996222287042e-03 1.192381371952280777e-01 9.930634880788880015e-02
8.726646259971647390e-02 1.833474848843945956e-03 1.444917861833269201e-01 1.249211465595449211e-01
1.047197551196597659e-01 2.120539094839603896e-03 1.702770913304088585e-01 1.529499692406326439e-01
1.221730476396030718e-01 2.402612670526171629e-03 1.966250924559751756e-01 1.836640722100552625e-01
1.396263401595463638e-01 2.679740092609394012e-03 2.235692794722663468e-01 2.173690510998659287e-01
1.570796326794896558e-01 2.951961435329602135e-03 2.511458481638438323e-01 2.544157876927775619e-01
1.745329251994329478e-01 3.219321977192502078e-03 2.793940140209090206e-01 2.951957081079294998e-01
1.919862177193762398e-01 3.481866995419837831e-03 3.083563504480112960e-01 3.401595818274378846e-01
2.094395102393195318e-01 3.739641741210482026e-03 3.380791875516329648e-01 3.898237815694764463e-01
2.268928027592628516e-01 3.992691450799707061e-03 3.686130895499233895e-01 4.447820141692682139e-01
2.443460952792061436e-01 4.241061377284124911e-03 4.000134144034129258e-01 5.057194860831386585e-01
2.617993877991494078e-01 4.484796839076567003e-03 4.323408761292330538e-01 5.734283810321089137e-01
2.792526803190927276e-01 4.723943282220375954e-03 4.656623724116416563e-01 6.488311850760534183e-01
2.967059728390360474e-01 4.958546350359778823e-03 5.000518154158984929e-01 7.330041990415023800e-01
3.141592653589793116e-01 5.188651945085782924e-03 5.355907764733305321e-01 8.272002152086059823e-01
3.316125578789225758e-01 5.414306236377841586e-03 5.723659480840738167e-01 9.327921859768530943e-01
3.490658503988658956e-01 5.635555529851023725e-03 6.104292358583101041e-01 1.050170299101917948e+00
3.665191429188092154e-01 5.852444763106626549e-03 6.498348090406118605e-01 1.180653955924080956e+00
3.839724354387524796e-01 6.065010417819772723e-03 6.906369610610080256e-01 1.325683319543948135e+00
4.014257279586957439e-01 6.273298281536331643e-03 7.328912286728269665e-01 1.486778036613685572e+00
4.188790204786390636e-01 6.477356282074492322e-03 7.766542418798072500e-01 1.665640639181268146e+00
4.363323129985823834e-01 6.677233748294980099e-03 8.219808382132518521e-01 1.864021710502331342e+00
4.537856055185257032e-01 6.872962371538781333e-03 8.689151995990107569e-01 2.083598163399967618e+00
4.712388980384689674e-01 7.064665320137338000e-03 9.175154249033664611e-01 2.326070448916459199e+00
4.886921905584122872e-01 7.252542677741985640e-03 9.678399561889362568e-01 2.592440769640123488e+00
5.061454830783556069e-01 7.436799799086332707e-03 1.019946306386994461e+00 2.884321595608571709e+00
5.235987755982988157e-01 7.617627625986257700e-03 1.073874019708171312e+00 3.202580668623084659e+00
5.410520681182421354e-01 7.795204558550437694e-03 1.129683491400137019e+00 3.550407022116476075e+00
5.585053606381854552e-01 7.969697635563134652e-03 1.187435036340324546e+00 3.930024562508656949e+00
5.759586531581287749e-01 8.141263507732327681e-03 1.247181938473528762e+00 4.343244741984170432e+00
5.934119456780720947e-01 8.310049331132329797e-03 1.308965849468637588e+00 4.791458661048080714e+00
6.108652381980153034e-01 8.476193567274076593e-03 1.372847416746896920e+00 5.278524651368574183e+00
6.283185307179586232e-01 8.639826702692516777e-03 1.438885068030604675e+00 5.806928414404181282e+00
6.457718232379019430e-01 8.801071898140173932e-03 1.507138402071663830e+00 6.379552613466766608e+00
6.632251157578451517e-01 8.960045575099219797e-03 1.577647963845175028e+00 6.997338722451067028e+00
6.806784082777884715e-01 9.116857946833588008e-03 1.650463062865811015e+00 7.663848841981217852e+00
6.981317007977317912e-01 9.271613500248274825e-03 1.725577571122102860e+00 8.375525650158829549e+00
7.155849933176750000e-01 9.424411434065440435e-03 1.802935726820269924e+00 9.127857896039319741e+00
7.330382858376184307e-01 9.575346058124531434e-03 1.882465807413924441e+00 9.919040002366546815e+00
7.504915783575616395e-01 9.724507157992504786e-03 1.964071881242396289e+00 1.074544201450388492e+01
7.679448708775049592e-01 9.871980328523689840e-03 2.047679840314175159e+00 1.160904940637260552e+01
7.853981633974482790e-01 1.001784727953499050e-02 2.133228201465899865e+00 1.251100234376666442e+01
8.028514559173914877e-01 1.016218611635662759e-02 2.220647713710418358e+00 1.344945991489164427e+01
8.203047484373349185e-01 1.030507159767653398e-02 2.309860317442064215e+00 1.442194485204865551e+01
8.377580409572781273e-01 1.044657537283415899e-02 2.400781581889428917e+00 1.542588505813222000e+01
8.552113334772214470e-01 1.058676620183554400e-02 2.493330186892224631e+00 1.646000899288162955e+01
8.726646259971647668e-01 1.072571015989317797e-02 2.587429288217059309e+00 1.752323556680240557e+01
8.901179185171079755e-01 1.086347082523445723e-02 2.683006249523193443e+00 1.861442697445776417e+01
9.075712110370514063e-01 1.100010945264418526e-02 2.779992312168516833e+00 1.973237829248694553e+01
9.250245035569946150e-01 1.113568513482616172e-02 2.878314700601238840e+00 2.087415467651979384e+01
9.424777960769379348e-01 1.127025495663656549e-02 2.977890936894544094e+00 2.203519092160801307e+01
9.599310885968812546e-01 1.140387413661722062e-02 3.078646831445772669e+00 2.321461750884374808e+01
9.773843811168245743e-01 1.153659615670654670e-02 3.180511155615299401e+00 2.441046475651469194e+01
9.948376736367677831e-01 1.166847288563687378e-02 3.283405594241724845e+00 2.561817980645061255e+01
1.012290966156711214e+00 1.179955469933559320e-02 3.387254201431641576e+00 2.683527341369893193e+01
1.029744258676654312e+00 1.192989058812842472e-02 3.491983644986961455e+00 2.805930948344271059e+01
1.047197551196597631e+00 1.205952825722727412e-02 3.597530026237896195e+00 2.928981046561887069e+01
1.064650843716540951e+00 1.218851422896783700e-02 3.703793064923723843e+00 3.051310932741678172e+01
1.082104136236484271e+00 1.231689393421916794e-02 3.810717148315176495e+00 3.173846188149477143e+01
1.099557428756427591e+00 1.244471179636348103e-02 3.918212916581630179e+00 3.295246068377625903e+01
1.117010721276370910e+00 1.257201131972514319e-02 4.026225014529768664e+00 3.416202976621704579e+01
1.134464013796314230e+00 1.269883516833668347e-02 4.134654476605343909e+00 3.534968901155870924e+01
1.151917306316257550e+00 1.282522523840430584e-02 4.243434848176386609e+00 3.652204791683125507e+01
1.169370598836200648e+00 1.295122273717145764e-02 4.352496209339306255e+00 3.767449081860274873e+01
1.186823891356144189e+00 1.307686825086059636e-02 4.461763574073420280e+00 3.880163592723732080e+01
1.204277183876087287e+00 1.320220181034139316e-02 4.571159953630224315e+00 3.989899843056881679e+01
1.221730476396030607e+00 1.332726296272801654e-02 4.680608322706901525e+00 4.096275601421539392e+01
1.239183768915973927e+00 1.345209083066147004e-02 4.790032072926686979e+00 4.198928346449975635e+01
1.256637061435917246e+00 1.357672417569080921e-02 4.899354831495937646e+00 4.297493461823086136e+01
1.274090353955860566e+00 1.370120146275205161e-02 5.008500394857011706e+00 4.391609185070696242e+01
1.291543646475803886e+00 1.382556091452136551e-02 5.117393002476129382e+00 4.480932171405367370e+01
1.308996938995747206e+00 1.394984057516797035e-02 5.225957752802791845e+00 4.565146023885763782e+01
1.326450231515690303e+00 1.407407836780243116e-02 5.334120798189516677e+00 4.643955255148424044e+01
1.343903524035633845e+00 1.419831214894935571e-02 5.441809025436657343e+00 4.717064566148179949e+01
1.361356816555576943e+00 1.432257977217077198e-02 5.548949130833326748e+00 4.784150362793578637e+01
1.378810109075520263e+00 1.444691914088583849e-02 5.655465409399668353e+00 4.844798032957441336e+01
1.396263401595463582e+00 1.457136826743509091e-02 5.761274641320113687e+00 4.898355348758264682e+01
1.413716694115406902e+00 1.469596533437387068e-02 5.866302453435669584e+00 4.944939130832062091e+01
1.431169986635350000e+00 1.482074874782915788e-02 5.970475555793886002e+00 4.984340017463970440e+01
1.448623279155293542e+00 1.494575720231103647e-02 6.073720585092175384e+00 5.016312395481732977e+01
1.466076571675236861e+00 1.507102974011634809e-02 6.175963368067466597e+00 5.040591444599058946e+01
1.483529864195180181e+00 1.519660581026962762e-02 6.277128733096043689e+00 5.056919035927055006e+01
1.500983156715123279e+00 1.532252533806526679e-02 6.377140686411640225e+00 5.065062645815321218e+01
1.518436449235066599e+00 1.544882878615594021e-02 6.475922645259325705e+00 5.064820746505273519e+01
1.535889741755009918e+00 1.557555722229474367e-02 6.573397556732160751e+00 5.056018715613442538e+01
1.553343034274953460e+00 1.570275239345401627e-02 6.669488969308484450e+00 5.038560901188271401e+01
1.570796326794896558e+00 1.583045679334675257e-02 6.764136082055636656e+00 5.013186318820122267e+01
1.588249619314839878e+00 1.595871374036137574e-02 6.857335820294959916e+00 4.982980792438106477e+01
1.605702911834782975e+00 1.608756745900261423e-02 6.949099790493599826e+00 4.948844261589928806e+01
1.623156204354726295e+00 1.621706315785097913e-02 7.039433443510145771e+00 4.910570341519346726e+01
1.640609496874669837e+00 1.634724711909506245e-02 7.128340270164196468e+00 4.868173519027631357e+01
1.658062789394613157e+00 1.647816679197668110e-02 7.215840680480177127e+00 4.822720729585686428e+01
1.675516081914556255e+00 1.660987088511310661e-02 7.301930926553428236e+00 4.773010582334010365e+01
1.692969374434499574e+00 1.674240946977064923e-02 7.386632315331756793e+00 4.720572632641827937e+01
1.710422666954442894e+00 1.687583409104794971e-02 7.469941015274854657e+00 4.664139711821314904e+01
1.727875959474386436e+00 1.701019787972501279e-02 7.551877095948785090e+00 4.605193237446268029e+01
1.745329251994329534e+00 1.714555567304663561e-02 7.632444669195649567e+00 4.542978500520757734e+01
1.762782544514272853e+00 1.728196414880242213e-02 7.711648986278563100e+00 4.477697504917871640e+01
1.780235837034215951e+00 1.741948196399733736e-02 7.789502830266640920e+00 4.409921268984009401e+01
1.797689129554159271e+00 1.755816990215384663e-02 7.866016351828412745e+00 4.339646401417230948e+01
1.815142422074102813e+00 1.769809103291895835e-02 7.941198520944110939e+00 4.266950437852224098e+01
1.832595714594046132e+00 1.783931088652167263e-02 8.015057417266802986e+00 4.191926841021413708e+01
1.850049007113989230e+00 1.798189763875110078e-02 8.087600829967710681e+00 4.114703193635615008e+01
1.867502299633932550e+00 1.812592230990325848e-02 8.158836794769422696e+00 4.035437859955830930e+01
1.884955592153875870e+00 1.827145898035648780e-02 8.228774062435917358e+00 3.954315928621144138e+01
1.902408884673818967e+00 1.841858502442232995e-02 8.297422749361880179e+00 3.871559112663813096e+01
1.919862177193762509e+00 1.856738136464483602e-02 8.364794109350654594e+00 3.787375108355042386e+01
1.937315469713705829e+00 1.871793274772892007e-02 8.430897403121448974e+00 3.701793210884620322e+01
1.954768762233649149e+00 1.887032804435670452e-02 8.495736920869646269e+00 3.614675105165384394e+01
1.972222054753592246e+00 1.902466057635840077e-02 8.559320998652371060e+00 3.526388928418779045e+01
1.989675347273535566e+00 1.918102847434405289e-02 8.621661217066705518e+00 3.437254387186605697e+01
2.007128639793478886e+00 1.933953506931427452e-02 8.682766740513340409e+00 3.347274015594013719e+01
2.024581932313422428e+00 1.950028932227960976e-02 8.742645908318412040e+00 3.256538173938128011e+01
2.042035224833365525e+00 1.966340629650246627e-02 8.801307799766368234e+00 3.165221554714234387e+01
2.059488517353308623e+00 1.982900767763508265e-02 8.858761789717586765e+00 3.073472016752533165e+01
2.076941809873252165e+00 1.999722234776321952e-02 8.915017049762699486e+00 2.981408233057108603e+01
2.094395102393195263e+00 2.016818702017849144e-02 8.970082542797896963e+00 2.889146692164568364e+01
2.111848394913138804e+00 2.034204694313499970e-02 9.023967189307295911e+00 2.796810638354363832e+01
2.129301687433081902e+00 2.051895668344518725e-02 9.076679960075118458e+00 2.704525761155978358e+01
2.146754979953025444e+00 2.069908099840257754e-02 9.128229877191010644e+00 2.612415173905393928e+01
2.164208272472968542e+00 2.088259580733659720e-02 9.178626014050044191e+00 2.520599266450848219e+01
2.181661564992911639e+00 2.106968928029984492e-02 9.227877495352716508e+00 2.429195571215895910e+01
2.199114857512855181e+00 2.126056306595093537e-02 9.275991766590760079e+00 2.338234044749561846e+01
2.216568150032798723e+00 2.145543366294587126e-02 9.322970100084674527e+00 2.247530439530308755e+01
2.234021442552741821e+00 2.165453398032031115e-02 9.368815576846690973e+00 2.157293481397025658e+01
2.251474735072684918e+00 2.185811509366636374e-02 9.413535514675071880e+00 2.067837806967560610e+01
2.268928027592628460e+00 2.206644825160224491e-02 9.457141468154098618e+00 1.979462486868372650e+01
2.286381320112572002e+00 2.227982715431237049e-02 9.499649228654080346e+00 1.892449577332579480e+01
2.303834612632515100e+00 2.249857055506460438e-02 9.541078824331354014e+00 1.807062689240882847e+01
2.321287905152458197e+00 2.272302515309147439e-02 9.581454520128273700e+00 1.723546304675913987e+01
2.338741197672401295e+00 2.295353823328298223e-02 9.620804820424188719e+00 1.642343065554283754e+01
2.356194490192344837e+00 2.319022701600056621e-02 9.659162904298355556e+00 1.565376172809165212e+01
2.373647782712288379e+00 2.343292253785381543e-02 9.696567540763462389e+00 1.494451076196297024e+01
2.391101075232231477e+00 2.368148856549417286e-02 9.733063204378723299e+00 1.429055305848259749e+01
2.408554367752174574e+00 2.393573665779716655e-02 9.768700075249874715e+00 1.369237031465423726e+01
2.426007660272118116e+00 2.419552153240079120e-02 9.803532349592639861e+00 1.314469631267768968e+01
2.443460952792061214e+00 2.446070712980538339e-02 9.837611176341340524e+00 1.264224943514311228e+01
2.460914245312004311e+00 2.473109945837241933e-02 9.870982811465228934e+00 1.218269905970073452e+01
2.478367537831947853e+00 2.500657643817493295e-02 9.903688617962812302e+00 1.175808315393985559e+01
2.495820830351891395e+00 2.528695272427892993e-02 9.935765065861861700e+00 1.136701162929657016e+01
2.513274122871834493e+00 2.557210190237934472e-02 9.967243989477921673e+00 1.100329709163435687e+01
2.530727415391777591e+00 2.586183467091609720e-02 9.998154791005701369e+00 1.066675957813117748e+01
2.548180707911721132e+00 2.615601895167989077e-02 1.002852556025595199e+01 1.035317165553553131e+01
2.565634000431664674e+00 2.645449655529702807e-02 1.005838308347458110e+01 1.006167306415152751e+01
2.583087292951607772e+00 2.675709408259080088e-02 1.008775284334264022e+01 9.791054185636767215e+00
2.600540585471550870e+00 2.706366228656931217e-02 1.011665901897633013e+01 9.538951483996319425e+00
2.617993877991494411e+00 2.737404783317641532e-02 1.014512448655387011e+01 9.304096640416599229e+00
2.635447170511437509e+00 2.768809427338645573e-02 1.017317091664940598e+01 9.085316387376220604e+00
2.652900463031380607e+00 2.800564520695458456e-02 1.020081897609301436e+01 8.881499615053389363e+00
2.670353755551324149e+00 2.832654798588738615e-02 1.022808835305901631e+01 8.691529499017743632e+00
2.687807048071267690e+00 2.865065476565159877e-02 1.025499775706596139e+01 8.514350669738352195e+00
2.705260340591210788e+00 2.897778183460095539e-02 1.028156491897664893e+01 8.350027430471802958e+00
2.722713633111153886e+00 2.930779028190516611e-02 1.030780659099811203e+01 8.196580482447133775e+00
2.740166925631096984e+00 2.964051663793179983e-02 1.033373854668161940e+01 8.053887081192540265e+00
2.757620218151040525e+00 2.997582276460702966e-02 1.035937558099820244e+01 7.920632703668091246e+00
2.775073510670984067e+00 3.031352287560617337e-02 1.038473162640260838e+01 7.797324254723615233e+00
2.792526803190927165e+00 3.065346853020115350e-02 1.040982010301348026e+01 7.682596457630458175e+00
2.809980095710870263e+00 3.099550733596538946e-02 1.043465398439448677e+01 7.576127472475377544e+00
2.827433388230813804e+00 3.133948617191659181e-02 1.045924579755433825e+01 7.477547789681605828e+00
2.844886680750756902e+00 3.168526127390063063e-02 1.048360762294677428e+01 7.386298693213575461e+00
2.862339973270700000e+00 3.203265762531515987e-02 1.050775109447057254e+01 7.302713119914002071e+00
2.879793265790643542e+00 3.238150923168742201e-02 1.053168739946954346e+01 7.226272636924983672e+00
2.897246558310587083e+00 3.273168539911480018e-02 1.055542727873253384e+01 7.155957271659194596e+00
2.914699850830530625e+00 3.308302629044813925e-02 1.057898102649341965e+01 7.092105041334940907e+00
2.932153143350473723e+00 3.343535157230004273e-02 1.060235849058103774e+01 7.034869980230035402e+00
2.949606435870416821e+00 3.378851820495080982e-02 1.062556913453418694e+01 6.983284353058419214e+00
2.967059728390360362e+00 3.414237920395444409e-02 1.064862219531063836e+01 6.937281456424051918e+00
2.984513020910303460e+00 3.449678509024422385e-02 1.067152670794386360e+01 6.896784950632924627e+00
3.001966313430246558e+00 3.485155068240273352e-02 1.069429150554304186e+01 6.862372985752446475e+00
3.019419605950190100e+00 3.520652098111826805e-02 1.071692521929305464e+01 6.833355313712146106e+00
3.036872898470133197e+00 3.556155964378039658e-02 1.073943627845448745e+01 6.809288983120887373e+00
3.054326190990076295e+00 3.591651907200374416e-02 1.076183291036362810e+01 6.790319997062478130e+00
3.071779483510019837e+00 3.627123878386306899e-02 1.078412314043247022e+01 6.776634561156906322e+00
3.089232776029963379e+00 3.662554999662028660e-02 1.080631479214870794e+01 6.768342789301518891e+00
3.106686068549906921e+00 3.697929169609212585e-02 1.082841548707574297e+01 6.765261420419605543e+00
3.124139361069850018e+00 3.733230617321554173e-02 1.085043264485268111e+01 6.767305676425120708e+00
3.141592653589793116e+00 3.768443676250730207e-02 1.087237348642490709e+01 6.774447646241132048e+00
3.159045946109736214e+00 3.803552784206398057e-02 1.089424509994889334e+01 6.786692466312270966e+00
3.176499238629679756e+00 3.838542483356197077e-02 1.091605450234357022e+01 6.804077513916164222e+00
3.193952531149622853e+00 3.873397420225748594e-02 1.093780864164893174e+01 6.826654536094314274e+00
3.211405823669565951e+00 3.908102344849576082e-02 1.095951439702603203e+01 6.854489417053468259e+00
3.228859116189509493e+00 3.942641905755539522e-02 1.098117857875699777e+01 6.887703320782669891e+00
3.246312408709452590e+00 3.977000179608686931e-02 1.100280792824501752e+01 6.926528935846565815e+00
3.263765701229396576e+00 4.011160605968165649e-02 1.102440911801434531e+01 6.971234812672776116e+00
3.281218993749339674e+00 4.045106607732774917e-02 1.104598875171030414e+01 7.021987235035142660e+00
3.298672286269282772e+00 4.078823440457011312e-02 1.106755336409927359e+01 7.078585949726362792e+00
3.316125578789226314e+00 4.112299019546420548e-02 1.108910942106870934e+01 7.140652407608166996e+00
3.333578871309169411e+00 4.145528657828681518e-02 1.111066331962712894e+01 7.206762471315259155e+00
3.351032163829112509e+00 4.178517288995144824e-02 1.113222138790411009e+01 7.274905937864170724e+00
3.368485456349056051e+00 4.211273038608517871e-02 1.115378991061490233e+01 7.344383011777736670e+00
3.385938748868999149e+00 4.243802500540055922e-02 1.117537527235219841e+01 7.415570485346949958e+00
3.403392041388942246e+00 4.276111733051784353e-02 1.119698400766616864e+01 7.488654013944960219e+00
3.420845333908885788e+00 4.308207209284471012e-02 1.121862280111703036e+01 7.563603662913228831e+00
3.438298626428828886e+00 4.340095564669622930e-02 1.124029848727502490e+01 7.640443647520315018e+00
