# angles(rad), pulling distance(m),                                     elastic band force(n), cable force(n)
0.000000000000000000e+00 3.237197453301667613e-04 2.175086062485470650e-02 1.461449123034904395e-02
1.745329251994329547e-02 6.429698183555121157e-04 4.379049556400046311e-02 3.023105137890541236e-02
3.490658503988659095e-02 9.579591237795178661e-04 6.613558973742529601e-02 4.691606843313262526e-02
5.235987755982988295e-02 1.268761362207006986e-03 8.880295863158972625e-02 6.476560247377655122e-02
6.981317007977318190e-02 1.575409914423897117e-03 1.118095482994268669e-01 8.388614197179471155e-02
8.726646259971647390e-02 1.877935384684104947e-03 1.351725889288949434e-01 1.043893158622270084e-01
1.047197551196597659e-01 2.176341839726553089e-03 1.589104036584070567e-01 1.264109960388978826e-01
1.221730476396030718e-01 2.470660592698073737e-03 1.830426733974336029e-01 1.500833746943348035e-01
1.396263401595463638e-01 2.760927534695702470e-03 2.075904194952246928e-01 1.755582938598756471e-01
1.570796326794896558e-01 3.047143672046371665e-03 2.325759823291351780e-01 2.030298456939706175e-01
1.745329251994329478e-01 3.329347483561842340e-03 2.580231143527761950e-01 2.326668878363521431e-01
1.919862177193762398e-01 3.607558069064278894e-03 2.839572438009003164e-01 2.646981927436616311e-01
2.094395102393195318e-01 3.881796429435464043e-03 3.104055766727347732e-01 2.993640279209034971e-01
2.268928027592628516e-01 4.152094409062710191e-03 3.373973241031462678e-01 3.369223613305473708e-01
2.443460952792061436e-01 4.418462971112363004e-03 3.649638408785361721e-01 3.777015487328235221e-01
2.617993877991494078e-01 4.680940120567710083e-03 3.931389200256810712e-01 4.220070284415750050e-01
2.792526803190927276e-01 4.939533028337886149e-03 4.219590059986904618e-01 4.702717849004509065e-01
2.967059728390360474e-01 5.194281391666080890e-03 4.514635219945036249e-01 5.228772633586039609e-01
3.141592653589793116e-01 5.445192286361813343e-03 4.816952073049918792e-01 5.803836433836032649e-01
3.316125578789225758e-01 5.692304429830092986e-03 5.127004873793256090e-01 6.432877794807330130e-01
3.490658503988658956e-01 5.935626900366277464e-03 5.445299311725605440e-01 7.123092577433648431e-01
3.665191429188092154e-01 6.175195902593835252e-03 5.772388231803360359e-01 7.881170833681903076e-01
3.839724354387524796e-01 6.411023517492253979e-03 6.108876584516661490e-01 8.716391503761291570e-01
4.014257279586957439e-01 6.643142914538524221e-03 6.455428081879407420e-01 9.637877300908539446e-01
4.188790204786390636e-01 6.871569078301755819e-03 6.812781914523176052e-01 1.065803359830745700e+00
4.363323129985823834e-01 7.096332768551240344e-03 7.181683196986857753e-01 1.178718919713232838e+00
4.537856055185257032e-01 7.317450605551282378e-03 7.562670329024320237e-01 1.303051856101161698e+00
4.712388980384689674e-01 7.534952795720772402e-03 7.956190208888485049e-01 1.439488500202433130e+00
4.886921905584122872e-01 7.748855208222245675e-03 8.362708469292385871e-01 1.589319942419205045e+00
5.061454830783556069e-01 7.959190517312175403e-03 8.782685625185057132e-01 1.753641528816081818e+00
5.235987755982988157e-01 8.165970561490640267e-03 9.216583715354004225e-01 1.933967123308508285e+00
5.410520681182421354e-01 8.369234189237637414e-03 9.664864549767867574e-01 2.131504584902748078e+00
5.585053606381854552e-01 8.568985712283616954e-03 1.012799000322073040e+00 2.348182327364784161e+00
5.759586531581287749e-01 8.765264632608838619e-03 1.060642165634081868e+00 2.585324923493467431e+00
5.934119456780720947e-01 8.958083914682628615e-03 1.110062051175107589e+00 2.845106512299727886e+00
6.108652381980153034e-01 9.147469063169042999e-03 1.161104667508616517e+00 3.129380552823039174e+00
6.283185307179586232e-01 9.333455336273768430e-03 1.213815912880325643e+00 3.440132830872571823e+00
6.457718232379019430e-01 9.516056041000664836e-03 1.268241570080804514e+00 3.780099372773541244e+00
6.632251157578451517e-01 9.695355505777231847e-03 1.324427335059923827e+00 4.150261300128739173e+00
6.806784082777884715e-01 9.871522122150977463e-03 1.382418895664701886e+00 4.550727647458971070e+00
6.981317007977317912e-01 1.004471693202705490e-02 1.442262059484978876e+00 4.983378240911759072e+00
7.155849933176750000e-01 1.021508867691992006e-02 1.504003010389366235e+00 5.450350707090128033e+00
7.330382858376184307e-01 1.038277855407370755e-02 1.567688454950630472e+00 5.953784323876067042e+00
7.504915783575616395e-01 1.054791909278289183e-02 1.633366549084824371e+00 6.496067095636196775e+00
7.679448708775049592e-01 1.071063548348785525e-02 1.701086012484740895e+00 7.079596066719757275e+00
7.853981633974482790e-01 1.087104602800848668e-02 1.770890707909660966e+00 7.706256896382264188e+00
8.028514559173914877e-01 1.102926268450572442e-02 1.842817443023665014e+00 8.377616176596669462e+00
8.203047484373349185e-01 1.118539157176252040e-02 1.916920415439434588e+00 9.098220269442867547e+00
8.377580409572781273e-01 1.133953340692900325e-02 1.993216992188893366e+00 9.865954499543489575e+00
8.552113334772214470e-01 1.149178393301358500e-02 2.071639505667464132e+00 1.067077935518528875e+01
8.726646259971647668e-01 1.164223427211189855e-02 2.152103229297612774e+00 1.150986036346494856e+01
8.901179185171079755e-01 1.179097126919058727e-02 2.234527313511657898e+00 1.238285504513936708e+01
9.075712110370514063e-01 1.193807782207660477e-02 2.318834789011431585e+00 1.328935409927518130e+01
9.250245035569946150e-01 1.208363313799606931e-02 2.404950648316871220e+00 1.422856941766196393e+01
9.424777960769379348e-01 1.222771302496740604e-02 2.492795655659720389e+00 1.519848864950972178e+01
9.599310885968812546e-01 1.237039012035002702e-02 2.582290363329448724e+00 1.619750672417157134e+01
9.773843811168245743e-01 1.251173411091281197e-02 2.673356597395549539e+00 1.722411520088191139e+01
9.948376736367677831e-01 1.265181195988425433e-02 2.765918108252439112e+00 1.827680542542249853e+01
1.012290966156711214e+00 1.279068806758136036e-02 2.859901877820043570e+00 1.935425492030822525e+01
1.029744258676654312e+00 1.292842448723483320e-02 2.955234124465830892e+00 2.045422039852776663e+01
1.047197551196597631e+00 1.306508105057722913e-02 3.051836680963933457e+00 2.157344061529890666e+01
1.064650843716540951e+00 1.320071556162121656e-02 3.149629417596154557e+00 2.270888712270169663e+01
1.082104136236484271e+00 1.333538390260744812e-02 3.248535535529144092e+00 2.385861713551560825e+01
1.099557428756427591e+00 1.346914020473870613e-02 3.348486897348802671e+00 2.502206027622229811e+01
1.117010721276370910e+00 1.360203693935393629e-02 3.449398587443571529e+00 2.619211392042340236e+01
1.134464013796314230e+00 1.373412507062012761e-02 3.551189785643973806e+00 2.736656653800742589e+01
1.151917306316257550e+00 1.386545413231559352e-02 3.653790700127483415e+00 2.854526350258450051e+01
1.169370598836200648e+00 1.399607236810216856e-02 3.757125713473500994e+00 2.972346345106254262e+01
1.186823891356144189e+00 1.412602679436013656e-02 3.861105038686611035e+00 3.089352999047662962e+01
1.204277183876087287e+00 1.425536333121070996e-02 3.965660245304411635e+00 3.205825951585780587e+01
1.221730476396030607e+00 1.438412685458306459e-02 4.070716903087108207e+00 3.321250470765541252e+01
1.239183768915973927e+00 1.451236131675032008e-02 4.176196967099193635e+00 3.435157101857281958e+01
1.256637061435917246e+00 1.464010979485835806e-02 4.282021580373811531e+00 3.547152063865660665e+01
1.274090353955860566e+00 1.476741459546536059e-02 4.388112152909037889e+00 3.656871763132055264e+01
1.291543646475803886e+00 1.489431730902866097e-02 4.494390739679384517e+00 3.763965976729065233e+01
1.308996938995747206e+00 1.502085889217225773e-02 4.600780529578768707e+00 3.868104553106591226e+01
1.326450231515690303e+00 1.514707973589481810e-02 4.707206290744471389e+00 3.968980064478220271e+01
1.343903524035633845e+00 1.527301972269285227e-02 4.813593891960192828e+00 4.066275695371825805e+01
1.361356816555576943e+00 1.539871831052875249e-02 4.919867317916615690e+00 4.159562681870531975e+01
1.378810109075520263e+00 1.552421456922135207e-02 5.025939370473581747e+00 4.248028671188097150e+01
1.396263401595463582e+00 1.564954727316553856e-02 5.131736382402177554e+00 4.331849215550175813e+01
1.413716694115406902e+00 1.577475493117931268e-02 5.237187096131172837e+00 4.410793444907032068e+01
1.431169986635350000e+00 1.589987587214988438e-02 5.342213532417609656e+00 4.484250556611149818e+01
1.448623279155293542e+00 1.602494828638787241e-02 5.446730247489471211e+00 4.551558045940729613e+01
1.466076571675236861e+00 1.615001029052797951e-02 5.550665446932715241e+00 4.612987967339424245e+01
1.483529864195180181e+00 1.627509999097317278e-02 5.653947373128564102e+00 4.668254646293064525e+01
1.500983156715123279e+00 1.640025552544181753e-02 5.756493739580123226e+00 4.716591391673278366e+01
1.518436449235066599e+00 1.652551514643140970e-02 5.858222671636623247e+00 4.757724248457440552e+01
1.535889741755009918e+00 1.665091724973063320e-02 5.959060354364484446e+00 4.791768411856524779e+01
1.553343034274953460e+00 1.677650046393084488e-02 6.058932619559627142e+00 4.818472988081405362e+01
1.570796326794896558e+00 1.690230368476748624e-02 6.157763489550748481e+00 4.837532130136101216e+01
1.588249619314839878e+00 1.702836615352049457e-02 6.255475347577093892e+00 4.848660549773429551e+01
1.605702911834782975e+00 1.715472751241930993e-02 6.351989547258036772e+00 4.851619141150845138e+01
1.623156204354726295e+00 1.728142786420541407e-02 6.447226726236941374e+00 4.846203479219974497e+01
1.640609496874669837e+00 1.740850785272542861e-02 6.541107286169463464e+00 4.832254249909478716e+01
1.658062789394613157e+00 1.753600870667570977e-02 6.633553956196102774e+00 4.809771501071665512e+01
1.675516081914556255e+00 1.766397234014342732e-02 6.724498524521897558e+00 4.779143878204809681e+01
1.692969374434499574e+00 1.779244139140934849e-02 6.813890841373851259e+00 4.741293588491700461e+01
1.710422666954442894e+00 1.792145933293705709e-02 6.901720362291986710e+00 4.698375944874747034e+01
1.727875959474386436e+00 1.805107051829030543e-02 6.988015961848452307e+00 4.652646494161238877e+01
1.745329251994329534e+00 1.818132029277575931e-02 7.072783695223844092e+00 4.603031712469518766e+01
1.762782544514272853e+00 1.831225505718011431e-02 7.156051368080492914e+00 4.550874987047274800e+01
1.780235837034215951e+00 1.844392237679302535e-02 7.237820846910876682e+00 4.494910660135850122e+01
1.797689129554159271e+00 1.857637106476259237e-02 7.318115940391148655e+00 4.436501505157884395e+01
1.815142422074102813e+00 1.870965129254648085e-02 7.396955646208559720e+00 4.375546296612932196e+01
1.832595714594046132e+00 1.884381469206096449e-02 7.474352989699413641e+00 4.311869465212882346e+01
1.850049007113989230e+00 1.897891447392256042e-02 7.550320177826360890e+00 4.245577494382808936e+01
1.867502299633932550e+00 1.911500554575143798e-02 7.624874976560445994e+00 4.177136762981946561e+01
1.884955592153875870e+00 1.925214464671488185e-02 7.698034264280316563e+00 4.106653023545955961e+01
1.902408884673818967e+00 1.939039047850634606e-02 7.769815283831807307e+00 4.034300749417820953e+01
1.919862177193762509e+00 1.952980386627047038e-02 7.840233884428910116e+00 3.960152660729931284e+01
1.937315469713705829e+00 1.967044789902651011e-02 7.909300553652856891e+00 3.884054192896173419e+01
1.954768762233649149e+00 1.981238812683610781e-02 7.977032953110320790e+00 3.806557103671795517e+01
1.972222054753592246e+00 1.995569271178049969e-02 8.043449837318236817e+00 3.727870093511993588e+01
1.989675347273535566e+00 2.010043266411751239e-02 8.108567434543918040e+00 3.647993658658143801e+01
2.007128639793478886e+00 2.024668202082142640e-02 8.172402561599025006e+00 3.567101884224481978e+01
2.024581932313422428e+00 2.039451810489315356e-02 8.234970719925525984e+00 3.485258386365322281e+01
2.042035224833365525e+00 2.054402176717617240e-02 8.296285872914999970e+00 3.402512217922942028e+01
2.059488517353308623e+00 2.069527764894566954e-02 8.356363146290862076e+00 3.319061098944516885e+01
2.076941809873252165e+00 2.084837450586940824e-02 8.415219143698065452e+00 3.235116161458810780e+01
2.094395102393195263e+00 2.100340550727552297e-02 8.472870415750795914e+00 3.150800504257880519e+01
2.111848394913138804e+00 2.116046859916102113e-02 8.529332953553597108e+00 3.066205933815366436e+01
2.129301687433081902e+00 2.131966690467381950e-02 8.584622346062658949e+00 2.981429688617905782e+01
2.146754979953025444e+00 2.148110913287898383e-02 8.638754284970659114e+00 2.896593564113714692e+01
2.164208272472968542e+00 2.164491004798899110e-02 8.691744665546071502e+00 2.811821029096621416e+01
2.181661564992911639e+00 2.181119099762838034e-02 8.743609586633159125e+00 2.727231364810604219e+01
2.199114857512855181e+00 2.198008047401091639e-02 8.794365350651984770e+00 2.642939879936632863e+01
2.216568150032798723e+00 2.215171473809065747e-02 8.844028463598400336e+00 2.559057696573525220e+01
2.234021442552741821e+00 2.232623851692076833e-02 8.892613701050516184e+00 2.475592444374287027e+01
2.251474735072684918e+00 2.250380578245668103e-02 8.940129055781881107e+00 2.392295686638003716e+01
2.268928027592628460e+00 2.268458061208980872e-02 8.986584538117266874e+00 2.309370835050462034e+01
2.286381320112572002e+00 2.286873814935692917e-02 9.031994859519990371e+00 2.227146363733278278e+01
2.303834612632515100e+00 2.305646567780285719e-02 9.076379432591915375e+00 2.145935811808337590e+01
2.321287905152458197e+00 2.324796383563917587e-02 9.119762371073452556e+00 2.066036009853874233e+01
2.338741197672401295e+00 2.344344795046201038e-02 9.162172489843561252e+00 1.987725825388224976e+01
2.356194490192344837e+00 2.364314966096116299e-02 9.203643304919753021e+00 1.911263496799954353e+01
2.373647782712288379e+00 2.384731835657447410e-02 9.244213033458077433e+00 1.836888912824050735e+01
2.391101075232231477e+00 2.405622386720879594e-02 9.283924560093929301e+00 1.764811355784464197e+01
2.408554367752174574e+00 2.427015972220610343e-02 9.322822942553361969e+00 1.695100302030165551e+01
2.426007660272118116e+00 2.448941072550813933e-02 9.360951244360293799e+00 1.627893003313898390e+01
2.443460952792061214e+00 2.471413470022797848e-02 9.398350138715969138e+00 1.564087251454503047e+01
2.460914245312004311e+00 2.494420774033529256e-02 9.435057908498961865e+00 1.505347751448132065e+01
2.478367537831947853e+00 2.517949340158159161e-02 9.471110446265173621e+00 1.451246817350681972e+01
2.495820830351891395e+00 2.541992366815045215e-02 9.506541254247837358e+00 1.400923613176002824e+01
2.513274122871834493e+00 2.566535221355970009e-02 9.541381493954311566e+00 1.354463547938025947e+01
2.530727415391777591e+00 2.591563505241508206e-02 9.575660564374363304e+00 1.311495204009458071e+01
2.548180707911721132e+00 2.617068929275908826e-02 9.609406475800589931e+00 1.271408698610941279e+01
2.565634000431664674e+00 2.643041712451615552e-02 9.642645856094020473e+00 1.234044000896184201e+01
2.583087292951607772e+00 2.669463322771565769e-02 9.675403950684117405e+00 1.199577898454556113e+01
2.600540585471550870e+00 2.696324727658819947e-02 9.707704622568776642e+00 1.167345427697913784e+01
2.617993877991494411e+00 2.723615523302270330e-02 9.739570352314327550e+00 1.137227806544773046e+01
2.635447170511437509e+00 2.751325392298601541e-02 9.771022238055532938e+00 1.109052789267163064e+01
2.652900463031380607e+00 2.779438918646017637e-02 9.802079995721930672e+00 1.082861756194320613e+01
2.670353755551324149e+00 2.807943828669794833e-02 9.832762135184722752e+00 1.058379692777622516e+01
2.687807048071267690e+00 2.836829130754616943e-02 9.863086451521137832e+00 1.035444783409400138e+01
2.705260340591210788e+00 2.866083450702587229e-02 9.893070109987457172e+00 1.013971392562837082e+01
2.722713633111153886e+00 2.895695155209935742e-02 9.922729646019011085e+00 9.938757743392942601e+00
2.740166925631096984e+00 2.925652401051389781e-02 9.952080965230178933e+00 9.750786396446645909e+00
2.757620218151040525e+00 2.955943212714378862e-02 9.981139343414389131e+00 9.575039618519264550e+00
2.775073510670984067e+00 2.986555558965263424e-02 1.000991942654411737e+01 9.410788407291732938e+00
2.792526803190927165e+00 3.017477430279530762e-02 1.003843523077089017e+01 9.257332807401486008e+00
2.809980095710870263e+00 3.048696935879344552e-02 1.006670014242528666e+01 9.113994110740707200e+00
2.827433388230813804e+00 3.080202337867661219e-02 1.009472691801692790e+01 8.980131283361622252e+00
2.844886680750756902e+00 3.111982305805828172e-02 1.012252768587580753e+01 8.855076345188839682e+00
2.862339973270700000e+00 3.144025556724486248e-02 1.015011407793275566e+01 8.738346402098567722e+00
2.879793265790643542e+00 3.176319512770960085e-02 1.017749745585089372e+01 8.629920059759125905e+00
2.897246558310587083e+00 3.208850215416490098e-02 1.020468893327964643e+01 8.529805575375302595e+00
2.914699850830530625e+00 3.241607701511567408e-02 1.023169937585474898e+01 8.436628123265961676e+00
2.932153143350473723e+00 3.274581451481903271e-02 1.025853940119823626e+01 8.350262186224618688e+00
2.949606435870416821e+00 3.307756655396811712e-02 1.028521937891845184e+01 8.271521844475060448e+00
2.967059728390360362e+00 3.341121459186842391e-02 1.031174943061004612e+01 8.199396200453261230e+00
2.984513020910303460e+00 3.374665581258212005e-02 1.033813942985396928e+01 8.133272683570782036e+00
3.001966313430246558e+00 3.408377102482808979e-02 1.036439900221748545e+01 8.073343347214317234e+00
3.019419605950190100e+00 3.442243661100679447e-02 1.039053752525415497e+01 8.019512922223126949e+00
3.036872898470133197e+00 3.476253411910987245e-02 1.041656412850385038e+01 7.971472161313341687e+00
3.054326190990076295e+00 3.510394745663070887e-02 1.044248769349274397e+01 7.928996281566591975e+00
3.071779483510019837e+00 3.544655976526234209e-02 1.046831685405155810e+01 7.891947545134728514e+00
3.089232776029963379e+00 3.579025330444563641e-02 1.049406004212290533e+01 7.860216457322024119e+00
3.106686068549906921e+00 3.613490974146667950e-02 1.051972558095103416e+01 7.833726469547039883e+00
3.124139361069850018e+00 3.648041031959956687e-02 1.054532169640294903e+01 7.812411576194622675e+00
3.141592653589793116e+00 3.682663586016619861e-02 1.057085651696842099e+01 7.796216418418646654e+00
3.159045946109736214e+00 3.717346676253627247e-02 1.059633807375997705e+01 7.785096096221983508e+00
3.176499238629679756e+00 3.752078300412728384e-02 1.062177430051290372e+01 7.779015988097843781e+00
3.193952531149622853e+00 3.786846414040453968e-02 1.064717303358524880e+01 7.777951624026369082e+00
3.211405823669565951e+00 3.821639064129146723e-02 1.067254201195781960e+01 7.781858719917022604e+00
3.228859116189509493e+00 3.856444752002366472e-02 1.069788887723418469e+01 7.790621725405264542e+00
3.246312408709452590e+00 3.891251880241020783e-02 1.072322117364067218e+01 7.804258235280316036e+00
3.263765701229396576e+00 3.926048581004641658e-02 1.074854634802636788e+01 7.822833909043675149e+00
3.281218993749339674e+00 3.960822716031383445e-02 1.077387174986312068e+01 7.846424682974556752e+00
3.298672286269282772e+00 3.995561876638024229e-02 1.079920463124553720e+01 7.875117451614273456e+00
3.316125578789226314e+00 4.030253383719965138e-02 1.082455214689098710e+01 7.909010820724009960e+00
3.333578871309169411e+00 4.064884287961497561e-02 1.084992139395128596e+01 7.948228394737228086e+00
3.351032163829112509e+00 4.099442224329116063e-02 1.087531966490108104e+01 7.992789632358582530e+00
3.368485456349056051e+00 4.133918211623217875e-02 1.090075454651103470e+01 8.042101854385448334e+00
3.385938748868999149e+00 4.168307224920624054e-02 1.092623392007780048e+01 8.095422608374809315e+00
3.403392041388942246e+00 4.202607928031847073e-02 1.095176596142402836e+01 8.152046925528125598e+00
3.420845333908885788e+00 4.236820206530968885e-02 1.097735914089836839e+01 8.211833147988254922e+00
3.438298626428828886e+00 4.270943836394179571e-02 1.100302222337546354e+01 8.274953981968410588e+00
