# angles(rad), pulling distance(m),                                     elastic band force(n), cable force(n)
0.000000000000000000e+00 3.264405160211270853e-04 2.200569875708612705e-02 1.483427313772171276e-02
1.745329251994329547e-02 6.481963951236660712e-04 4.433080499955330961e-02 3.075903179110903163e-02
3.490658503988659095e-02 9.653442491673946491e-04 6.699363566294949668e-02 4.787247970296351629e-02
5.235987755982988295e-02 1.278007223728893542e-03 9.001271924536929925e-02 6.626976893237780664e-02
6.981317007977318190e-02 1.586231594159663756e-03 1.134068095109386082e-01 8.607525533173301935e-02
8.726646259971647390e-02 1.890050531782240528e-03 1.371954277945864331e-01 1.074221932183024447e-01
1.047197551196597659e-01 2.189502029150374243e-03 1.613995718425987880e-01 1.304564685934176682e-01
1.221730476396030718e-01 2.484622077332576239e-03 1.860417245487602789e-01 1.553424992400994631e-01
1.396263401595463638e-01 2.775447050913480360e-03 2.111458204223597424e-01 1.822616831672525806e-01
1.570796326794896558e-01 3.062013031509885127e-03 2.367374417847942225e-01 2.114171040072100050e-01
1.745329251994329478e-01 3.344356060032923229e-03 2.628440051954626377e-01 2.430360588198302585e-01
1.919862177193762398e-01 3.622512103486390071e-03 2.894949525738038099e-01 2.773736155989909857e-01
2.094395102393195318e-01 3.896517093048512854e-03 3.167219372223343266e-01 3.147162880641722338e-01
2.268928027592628516e-01 4.166406933805151362e-03 3.445590748096283296e-01 3.553871589066265324e-01
2.443460952792061436e-01 4.432217515519231051e-03 3.730432185734364192e-01 3.997514545673412911e-01
2.617993877991494078e-01 4.693984717871415961e-03 4.022142576132428649e-01 4.482229899610165602e-01
2.792526803190927276e-01 4.951744413344802941e-03 4.321154698917317738e-01 5.012721779610306294e-01
2.967059728390360474e-01 5.205532468157350254e-03 4.627939321730794031e-01 5.594355574652684071e-01
3.141592653589793116e-01 5.455384742268933572e-03 4.943009857831158760e-01 6.233270325010994428e-01
3.316125578789225758e-01 5.701337089199587718e-03 5.266927700223038578e-01 6.936513832784410027e-01
3.490658503988658956e-01 5.943425356353524390e-03 5.600308658528081462e-01 7.712212943376252072e-01
3.665191429188092154e-01 6.181685386439133428e-03 5.943829738494019743e-01 8.569758050343028177e-01
3.839724354387524796e-01 6.416153020492790585e-03 6.298239739662201409e-01 9.520116337167211507e-01
4.014257279586957439e-01 6.646864102929824977e-03 6.664362712344525930e-01 1.057589545115475538e+00
4.188790204786390636e-01 6.873854488972652721e-03 7.043121694576828240e-01 1.175224048595981285e+00
4.363323129985823834e-01 7.097160054714732672e-03 7.435259800296696309e-01 1.305676678471608732e+00
4.537856055185257032e-01 7.316816710070867848e-03 7.841381897552627267e-01 1.449789197807623164e+00
4.712388980384689674e-01 7.532860414565330578e-03 8.262061718087286843e-01 1.608786818826427156e+00
4.886921905584122872e-01 7.745327196685402107e-03 8.697740130129787417e-01 1.783534146110320684e+00
5.061454830783556069e-01 7.954253174442081978e-03 9.149089887775854191e-01 1.976508401621050348e+00
5.235987755982988157e-01 8.159674585339832600e-03 9.616531366966947214e-01 2.188265394156045041e+00
5.410520681182421354e-01 8.361627797673465423e-03 1.010067769257980697e+00 2.421454917480344804e+00
5.585053606381854552e-01 8.560149393174390151e-03 1.060207045858882813e+00 2.677694292775136375e+00
5.759586531581287749e-01 8.755276050496555926e-03 1.112118828171255291e+00 2.958697253661151105e+00
5.934119456780720947e-01 8.947044943284358093e-03 1.165871111140837524e+00 3.267904036002722279e+00
6.108652381980153034e-01 9.135491730204088959e-03 1.221498693954446768e+00 3.605740424940730549e+00
6.283185307179586232e-01 9.320642616764195781e-03 1.279075554948353233e+00 3.977575090036479022e+00
6.457718232379019430e-01 9.502532537137313093e-03 1.338640096699226234e+00 4.383721965772997109e+00
6.632251157578451517e-01 9.681220214665331447e-03 1.400251876609502011e+00 4.828089526603623227e+00
6.806784082777884715e-01 9.856841931463307394e-03 1.463976705473501561e+00 5.312080232338114882e+00
6.981317007977317912e-01 1.002956014896899672e-02 1.529846928719214239e+00 5.834437164868460535e+00
7.155849933176750000e-01 1.019951770725867519e-02 1.597928957193858412e+00 6.401024223865750429e+00
7.330382858376184307e-01 1.036685224461748531e-02 1.668285279129771537e+00 7.014356870495665142e+00
7.504915783575616395e-01 1.053169292861323193e-02 1.740953100082196281e+00 7.674759961964610966e+00
7.679448708775049592e-01 1.069416168037577719e-02 1.815896625205920989e+00 8.376361169568642850e+00
7.853981633974482790e-01 1.085437395649677811e-02 1.893048993065323371e+00 9.116231029546058906e+00
8.028514559173914877e-01 1.101243904790768537e-02 1.972317392344016040e+00 9.891016489795747546e+00
8.203047484373349185e-01 1.116846064116473053e-02 2.053623314405941258e+00 1.070183515371210703e+01
8.377580409572781273e-01 1.132253724390846171e-02 2.136892685656741175e+00 1.154865224157532921e+01
8.552113334772214470e-01 1.147476254283891044e-02 2.222046392843375795e+00 1.242996329918553755e+01
8.726646259971647668e-01 1.162522578751012080e-02 2.309000184728099203e+00 1.334387823174812659e+01
8.901179185171079755e-01 1.177401211307612001e-02 2.397665817207909278e+00 1.428831281028277367e+01
9.075712110370514063e-01 1.192120281808992793e-02 2.487956084071142993e+00 1.526171226326528796e+01
9.250245035569946150e-01 1.206687567454025993e-02 2.579787763232100239e+00 1.626289536357568366e+01
9.424777960769379348e-01 1.221110514661109120e-02 2.673082032534809471e+00 1.729072646740761954e+01
9.599310885968812546e-01 1.235396264809121222e-02 2.767760799328951027e+00 1.834332649994566466e+01
9.773843811168245743e-01 1.249551674852151378e-02 2.863740661039043012e+00 1.941741226743408433e+01
9.948376736367677831e-01 1.263583336765853812e-02 2.960940762460416931e+00 2.051102315491106509e+01
1.012290966156711214e+00 1.277497597793046148e-02 3.059280503965240872e+00 2.162161924106126420e+01
1.029744258676654312e+00 1.291300575006789839e-02 3.158677033599931239e+00 2.274592868732814921e+01
1.047197551196597631e+00 1.304998174550886514e-02 3.259050257899214653e+00 2.388165762078626742e+01
1.064650843716540951e+00 1.318596102967176109e-02 3.360330393282882078e+00 2.502842394418246030e+01
1.082104136236484271e+00 1.332099884916545726e-02 3.462406825273138367e+00 2.617267785778283340e+01
1.099557428756427591e+00 1.345514872394980126e-02 3.565223153480737039e+00 2.732489720701449798e+01
1.117010721276370910e+00 1.358846260762596077e-02 3.668677130098323858e+00 2.846959578168372929e+01
1.134464013796314230e+00 1.372099096597972738e-02 3.772707876232833435e+00 2.961461382207544801e+01
1.151917306316257550e+00 1.385278291943618789e-02 3.877220530674337695e+00 3.074683991612134193e+01
1.169370598836200648e+00 1.398388631485570840e-02 3.982129851775318752e+00 3.186511973613569282e+01
1.186823891356144189e+00 1.411434784780173958e-02 4.087358498286566721e+00 3.296812423313100737e+01
1.204277183876087287e+00 1.424421313527577185e-02 4.192825996993603255e+00 3.405119867040457393e+01
1.221730476396030607e+00 1.437352681406612979e-02 4.298450324305234993e+00 3.511004622513759443e+01
1.239183768915973927e+00 1.450233262183140900e-02 4.404149300459659244e+00 3.614076725003825175e+01
1.256637061435917246e+00 1.463067346879965910e-02 4.509841396982863237e+00 3.713974182764847143e+01
1.274090353955860566e+00 1.475859153124847896e-02 4.615446070846440207e+00 3.810350686336314396e+01
1.291543646475803886e+00 1.488612829866537042e-02 4.720883316971031363e+00 3.902850497926465323e+01
1.308996938995747206e+00 1.501332467628486468e-02 4.826069908818142018e+00 3.990977221403744579e+01
1.326450231515690303e+00 1.514022101883361580e-02 4.930916266091718292e+00 4.074101728520071930e+01
1.343903524035633845e+00 1.526685722879575144e-02 5.035343231194136848e+00 4.152253230255664107e+01
1.361356816555576943e+00 1.539327279540629589e-02 5.139274092008965233e+00 4.225185194093686647e+01
1.378810109075520263e+00 1.551950687202978060e-02 5.242630512252972608e+00 4.292498007686658212e+01
1.396263401595463582e+00 1.564559833555757840e-02 5.345318496334915181e+00 4.353189068533083628e+01
1.413716694115406902e+00 1.577158583580134596e-02 5.447258751209234084e+00 4.407539989206988906e+01
1.431169986635350000e+00 1.589750787725037126e-02 5.548374908477277323e+00 4.455378449806629249e+01
1.448623279155293542e+00 1.602340284832023606e-02 5.648588542076059760e+00 4.496331963822111533e+01
1.466076571675236861e+00 1.614930911194173424e-02 5.747810110820767981e+00 4.529613695445708288e+01
1.483529864195180181e+00 1.627526503609103697e-02 5.845954971926464516e+00 4.555168346585941208e+01
1.500983156715123279e+00 1.640130907113440326e-02 5.942943321333238771e+00 4.572975334816988635e+01
1.518436449235066599e+00 1.652747980199153338e-02 6.038694910414355910e+00 4.582795310133909794e+01
1.535889741755009918e+00 1.665381600064112094e-02 6.133128307846677174e+00 4.584372089623514768e+01
1.553343034274953460e+00 1.678035670516065878e-02 6.226161201509563092e+00 4.577481966671023628e+01
1.570796326794896558e+00 1.690714125242799917e-02 6.317711647518517104e+00 4.561985916680306019e+01
1.588249619314839878e+00 1.703420937316738742e-02 6.407703101694552039e+00 4.538026663921770876e+01
1.605702911834782975e+00 1.716160122381303263e-02 6.496095152588448940e+00 4.507377594634449736e+01
1.623156204354726295e+00 1.728935747755627403e-02 6.582899833231059539e+00 4.472787053339413887e+01
1.640609496874669837e+00 1.741751937525619007e-02 6.668130675117857287e+00 4.434472346704703227e+01
1.658062789394613157e+00 1.754612879982324000e-02 6.751817678829366898e+00 4.393452447592898125e+01
1.675516081914556255e+00 1.767522835498715889e-02 6.833975052776311898e+00 4.349057928527649608e+01
1.692969374434499574e+00 1.780486142248904197e-02 6.914627141890983708e+00 4.301982011144009022e+01
1.710422666954442894e+00 1.793507226680453662e-02 6.993789444615002182e+00 4.251907589672070031e+01
1.727875959474386436e+00 1.806590608334834522e-02 7.071492338184263815e+00 4.199796589636260080e+01
1.745329251994329534e+00 1.819740912135840022e-02 7.147744385957907731e+00 4.144620190068791743e+01
1.762782544514272853e+00 1.832962873490505754e-02 7.222569936847841987e+00 4.087387338906458467e+01
1.780235837034215951e+00 1.846261351586470784e-02 7.295991500999330803e+00 4.028153478719349323e+01
1.797689129554159271e+00 1.859641335726952907e-02 7.368030254935348466e+00 3.966998114164355371e+01
1.815142422074102813e+00 1.873107959346943796e-02 7.438706155163241185e+00 3.904001989529732697e+01
1.832595714594046132e+00 1.886666507999947701e-02 7.508038654698090397e+00 3.839283243779639321e+01
1.850049007113989230e+00 1.900322434384278322e-02 7.576047187078289724e+00 3.772983508665813446e+01
1.867502299633932550e+00 1.914081367992363780e-02 7.642751695012406365e+00 3.705272556725274313e+01
1.884955592153875870e+00 1.927949131813355699e-02 7.708172631900454874e+00 3.636317158144942852e+01
1.902408884673818967e+00 1.941931753505270544e-02 7.772332635762173147e+00 3.566376198344878645e+01
1.919862177193762509e+00 1.956035484567315505e-02 7.835252896286649893e+00 3.495501660806829847e+01
1.937315469713705829e+00 1.970266813082453827e-02 7.896951301504541831e+00 3.423638916548788558e+01
1.954768762233649149e+00 1.984632485839406615e-02 7.957449314496238379e+00 3.351112615148331741e+01
1.972222054753592246e+00 1.999139523577733724e-02 8.016767627492333403e+00 3.278002993596549430e+01
1.989675347273535566e+00 2.013795245449127511e-02 8.074925013856313782e+00 3.204322093527593296e+01
2.007128639793478886e+00 2.028607289196090319e-02 8.131942141034661731e+00 3.130290371694360019e+01
2.024581932313422428e+00 2.043583636306401871e-02 8.187840671526288361e+00 3.056074075117818722e+01
2.042035224833365525e+00 2.058732639860774705e-02 8.242641326405399482e+00 2.981728408732548985e+01
2.059488517353308623e+00 2.074063050557574742e-02 8.296364196418410941e+00 2.907322602895643016e+01
2.076941809873252165e+00 2.089584051371334503e-02 8.349029481213715798e+00 2.832961744339968391e+01
2.094395102393195263e+00 2.105305290278813163e-02 8.400657547727185204e+00 2.758750179826056836e+01
2.111848394913138804e+00 2.121236916934317665e-02 8.451268831717015928e+00 2.684782766790751296e+01
2.129301687433081902e+00 2.137389626179784369e-02 8.500883786791719743e+00 2.611146902773172229e+01
2.146754979953025444e+00 2.153774701925928459e-02 8.549522883911226501e+00 2.537925855935551667e+01
2.164208272472968542e+00 2.170404066025738085e-02 8.597206602004023424e+00 2.465198149099254010e+01
2.181661564992911639e+00 2.187290334501230601e-02 8.643955409192018990e+00 2.393036717096082455e+01
2.199114857512855181e+00 2.204446878076323640e-02 8.689789760554294418e+00 2.321510013985293952e+01
2.216568150032798723e+00 2.221887888592239541e-02 8.734730098127084119e+00 2.250682200201814354e+01
2.234021442552741821e+00 2.239628453341424921e-02 8.778796850903793469e+00 2.180613052487446524e+01
2.251474735072684918e+00 2.257684638010186429e-02 8.822010434834984594e+00 2.111357938353105723e+01
2.268928027592628460e+00 2.276073578868182887e-02 8.864391252828387024e+00 2.042967864269671097e+01
2.286381320112572002e+00 2.294813587932820545e-02 8.905959694748890598e+00 1.975489270259124197e+01
2.303834612632515100e+00 2.313924259990783952e-02 8.946736137418545454e+00 1.908965169207495904e+01
2.321287905152458197e+00 2.333426633560340552e-02 8.986740726855487083e+00 1.843421119341535075e+01
2.338741197672401295e+00 2.353343230675851439e-02 9.025993009529246436e+00 1.778872299151433012e+01
2.356194490192344837e+00 2.373698551425397138e-02 9.064513354649898602e+00 1.715365663199706958e+01
2.373647782712288379e+00 2.394518600984056264e-02 9.102323687614651604e+00 1.653031076664888488e+01
2.391101075232231477e+00 2.415831030583201824e-02 9.139444713456896352e+00 1.591867139378606666e+01
2.408554367752174574e+00 2.437643611613382263e-02 9.175895202701207509e+00 1.533362186392412418e+01
2.426007660272118116e+00 2.459953032385423649e-02 9.211690209053662315e+00 1.477996730256397662e+01
2.443460952792061214e+00 2.482751278738690864e-02 9.246841298125236364e+00 1.425708526281174215e+01
2.460914245312004311e+00 2.506026318169491188e-02 9.281359642128670373e+00 1.376483876210434154e+01
2.478367537831947853e+00 2.529768228286795664e-02 9.315256967403943378e+00 1.329978480613839764e+01
2.495820830351891395e+00 2.553968362105767109e-02 9.348545326383467469e+00 1.285933933625815406e+01
2.513274122871834493e+00 2.578617372256403195e-02 9.381235509881406642e+00 1.244164809788490800e+01
2.530727415391777591e+00 2.603703084082871835e-02 9.413339612636058007e+00 1.204697017485619526e+01
2.548180707911721132e+00 2.629216071585717407e-02 9.444869017363213715e+00 1.167213748723888855e+01
2.565634000431664674e+00 2.655146890166325269e-02 9.475835404874304757e+00 1.131597100286229107e+01
2.583087292951607772e+00 2.681485860011131178e-02 9.506250654452809812e+00 1.097745993539800047e+01
2.600540585471550870e+00 2.708223068995805130e-02 9.536125947766084465e+00 1.065535897651670361e+01
2.617993877991494411e+00 2.735348460527928585e-02 9.565473053954336891e+00 1.034893646135295775e+01
2.635447170511437509e+00 2.762851924130057396e-02 9.594314368193735731e+00 1.006101048244836171e+01
2.652900463031380607e+00 2.790723382570845998e-02 9.622675456657612258e+00 9.791721178323625097e+00
2.670353755551324149e+00 2.818952920018770458e-02 9.650580389329308062e+00 9.539610647316040470e+00
2.687807048071267690e+00 2.847530958873432591e-02 9.678051839020110236e+00 9.303301585974494969e+00
2.705260340591210788e+00 2.876448273303222267e-02 9.705111183816898190e+00 9.081546989838670925e+00
2.722713633111153886e+00 2.905693656971844105e-02 9.731778608201324232e+00 8.873929407143828385e+00
2.740166925631096984e+00 2.935256969973849134e-02 9.758073198366316703e+00 8.679153636591372845e+00
2.757620218151040525e+00 2.965130341045487533e-02 9.784013028160988057e+00 8.495714529528983761e+00
2.775073510670984067e+00 2.995300830553349752e-02 9.809615237745406446e+00 8.324287386646863851e+00
2.792526803190927165e+00 3.025761013343387235e-02 9.834896104691104313e+00 8.162613519469132939e+00
2.809980095710870263e+00 3.056499641712856832e-02 9.859871108834740383e+00 8.011103125325298890e+00
2.827433388230813804e+00 3.087506305101291385e-02 9.884554991809380908e+00 7.868927901646804557e+00
2.844886680750756902e+00 3.118771889800624544e-02 9.908961811257075425e+00 7.735222103381812708e+00
2.862339973270700000e+00 3.150286630825455819e-02 9.933104990537785284e+00 7.609668580544993510e+00
2.879793265790643542e+00 3.182040304645369910e-02 9.956997364453448185e+00 7.491930082105931810e+00
2.897246558310587083e+00 3.214022655556285357e-02 9.980651221388372463e+00 7.381599206565095272e+00
2.914699850830530625e+00 3.246224041915561631e-02 1.000407834209116587e+01 7.278157164586369632e+00
2.932153143350473723e+00 3.278636122550329657e-02 1.002729003547975672e+01 7.180976267606536290e+00
2.949606435870416821e+00 3.311246778191017509e-02 1.005029717178276627e+01 7.090582889982273151e+00
2.967059728390360362e+00 3.344046383791279831e-02 1.007311021326589362e+01 7.006129401675319279e+00
2.984513020910303460e+00 3.377025566248319233e-02 1.009573924276827306e+01 6.927302745315830457e+00
3.001966313430246558e+00 3.410175664830150666e-02 1.011819399025233679e+01 6.853719921376266733e+00
3.019419605950190100e+00 3.443483647697256900e-02 1.014048385755114623e+01 6.786062081044393679e+00
3.036872898470133197e+00 3.476941063976764917e-02 1.016261794147947484e+01 6.723180193265899440e+00
3.054326190990076295e+00 3.510538151081488839e-02 1.018460505545901640e+01 6.665163306955316891e+00
3.071779483510019837e+00 3.544265150459915276e-02 1.020645374979384457e+01 6.611844881891452808e+00
3.089232776029963379e+00 3.578112671263134620e-02 1.022817233071944898e+01 6.563003233745022591e+00
3.106686068549906921e+00 3.612071160829265909e-02 1.024976887833735972e+01 6.518535555667583026e+00
3.124139361069850018e+00 3.646129663300381324e-02 1.027125126353723772e+01 6.478587140322995097e+00
3.141592653589793116e+00 3.680277800008138755e-02 1.029262716399942867e+01 6.442933494000190109e+00
3.159045946109736214e+00 3.714506088571033204e-02 1.031390407936304854e+01 6.411306944601079749e+00
3.176499238629679756e+00 3.748804948283983307e-02 1.033508934563764647e+01 6.383641368591201903e+00
3.193952531149622853e+00 3.783164531502963834e-02 1.035619014893041445e+01 6.359912161983600321e+00
3.211405823669565951e+00 3.817574723645007079e-02 1.037721353855537210e+01 6.340104191859510685e+00
3.228859116189509493e+00 3.852025294491501217e-02 1.039816643958621967e+01 6.324184097898243984e+00
3.246312408709452590e+00 3.886506377810408641e-02 1.041905566491023016e+01 6.312040704602073227e+00
3.263765701229396576e+00 3.921008120295610411e-02 1.043988792684265299e+01 6.303637560636311754e+00
3.281218993749339674e+00 3.955520555975919339e-02 1.046066984836028801e+01 6.298970661596686504e+00
3.298672286269282772e+00 3.990033606215078604e-02 1.048140797397596202e+01 6.298045339000808873e+00
3.316125578789226314e+00 4.024537079711761750e-02 1.050210878030683403e+01 6.300876343588523554e+00
3.333578871309169411e+00 4.059020672499574073e-02 1.052277868638247149e+01 6.307487982490814993e+00
3.351032163829112509e+00 4.093473967947051234e-02 1.054342406373372398e+01 6.317914311038705044e+00
3.368485456349056051e+00 4.127886484442391118e-02 1.056405124630192738e+01 6.332190607066699783e+00
3.385938748868999149e+00 4.162248800057682246e-02 1.058466654020670283e+01 6.350154455636014994e+00
3.403392041388942246e+00 4.196553692943830183e-02 1.060527623342141368e+01 6.371437752436154511e+00
3.420845333908885788e+00 4.230796192161620506e-02 1.062588660539675267e+01 6.395662714689051676e+00
3.438298626428828886e+00 4.264973345886837602e-02 1.064650393662927286e+01 6.422492051111784228e+00
