# angles(rad), pulling distance(m),                                     elastic band force(n), cable force(n)
0.000000000000000000e+00 3.103113641621005575e-04 2.103769036475069271e-02 1.426259128724421260e-02
1.745329251994329547e-02 6.154884593190471792e-04 4.237807343836302865e-02 2.963408248680152179e-02
3.490658503988659095e-02 9.157825693087205763e-04 6.404013899351457262e-02 4.619610051912888260e-02
5.235987755982988295e-02 1.211355455801190091e-03 8.604303029958040860e-02 6.405172902672286173e-02
6.981317007977318190e-02 1.502257645286549786e-03 1.084060441226330634e-01 8.333680360074800786e-02
8.726646259971647390e-02 1.788516122416506380e-03 1.311486307254426109e-01 1.041946118772646840e-01
1.047197551196597659e-01 2.070185001812387474e-03 1.542906187674127350e-01 1.267655717650379987e-01
1.221730476396030718e-01 2.347294075600136164e-03 1.778532722168963132e-01 1.512290796119238057e-01
1.396263401595463638e-01 2.619881346942478338e-03 2.018596003395194405e-01 1.777745445188486650e-01
1.570796326794896558e-01 2.887997507140271404e-03 2.263343462037702425e-01 2.066073003433320787e-01
1.745329251994329478e-01 3.151673047789114047e-03 2.513039694286187675e-01 2.379805656641595657e-01
1.919862177193762398e-01 3.410944602773879810e-03 2.767967478653446944e-01 2.721593645609189926e-01
2.094395102393195318e-01 3.665861272306194813e-03 3.028432181500435583e-01 3.094343299298341621e-01
2.268928027592628516e-01 3.916461049527913442e-03 3.294763090861246857e-01 3.501588308840137276e-01
2.443460952792061436e-01 4.162773366541493159e-03 3.567314514684233329e-01 3.947332646576462989e-01
2.617993877991494078e-01 4.404846300355809256e-03 3.846468394183208406e-01 4.435673818164524995e-01
2.792526803190927276e-01 4.642726543729939342e-03 4.132648049423047198e-01 4.971744509910403509e-01
2.967059728390360474e-01 4.876436208159838810e-03 4.426313328334628983e-01 5.561834771729453619e-01
3.141592653589793116e-01 5.106022388687531804e-03 4.727923342999511003e-01 6.211127453485885130e-01
3.316125578789225758e-01 5.331533815273617992e-03 5.037890638651034703e-01 6.924621783875206660e-01
3.490658503988658956e-01 5.552995840011776957e-03 5.356545825997833798e-01 7.707376087314111723e-01
3.665191429188092154e-01 5.770452280204152115e-03 5.684234693582100872e-01 8.565671488852216742e-01
3.839724354387524796e-01 5.983953440329063331e-03 6.021311828506986652e-01 9.506489512539388897e-01
4.014257279586957439e-01 6.193521715640621858e-03 6.368086600671890585e-01 1.053733813856785995e+00
4.188790204786390636e-01 6.399205978483114669e-03 6.724924728544191543e-01 1.166695748645329322e+00
4.363323129985823834e-01 6.601048506869526371e-03 7.092188498371643224e-01 1.290463365209323143e+00
4.537856055185257032e-01 6.799078949355110216e-03 7.470163745094016150e-01 1.425809561988925944e+00
4.712388980384689674e-01 6.993352957544171980e-03 7.859203269081969090e-01 1.573829009464145168e+00
4.886921905584122872e-01 7.183889894514096201e-03 8.259682315802071573e-01 1.736056930822525324e+00
5.061454830783556069e-01 7.370747913961360996e-03 8.671935710737611602e-01 1.913236021654010521e+00
5.235987755982988157e-01 7.553948909699855808e-03 9.096262721834348364e-01 2.106860804630217299e+00
5.410520681182421354e-01 7.733546744829586025e-03 9.533039999308792201e-01 2.318410605531742164e+00
5.585053606381854552e-01 7.909712284555291822e-03 9.982633558796487616e-01 2.547676328610439356e+00
5.759586531581287749e-01 8.082619909180570328e-03 1.044532034048685221e+00 2.795083017616234233e+00
5.934119456780720947e-01 8.252439152435843764e-03 1.092146596044442086e+00 3.062201951261971367e+00
6.108652381980153034e-01 8.419328351723992174e-03 1.141143267314096432e+00 3.350260039514651123e+00
6.283185307179586232e-01 8.583436030042796219e-03 1.191553746847028528e+00 3.660206297668298525e+00
6.457718232379019430e-01 8.744901765027721097e-03 1.243413865836337839e+00 3.993639334144181596e+00
6.632251157578451517e-01 8.903856925214059803e-03 1.296757317259382258e+00 4.351762527219172227e+00
6.806784082777884715e-01 9.060425349694142122e-03 1.351615321516597135e+00 4.735751752506596191e+00
6.981317007977317912e-01 9.214723958440378462e-03 1.408025004447563511e+00 5.147567091184022559e+00
7.155849933176750000e-01 9.366863304225845482e-03 1.466023125841481090e+00 5.588730961071783909e+00
7.330382858376184307e-01 9.516948072985040655e-03 1.525641481152020029e+00 6.060324218892194637e+00
7.504915783575616395e-01 9.665077538042523078e-03 1.586916755780227950e+00 6.564444149231495551e+00
7.679448708775049592e-01 9.811345973295850995e-03 1.649887723656771943e+00 7.103038100213153072e+00
7.853981633974482790e-01 9.955843029796497545e-03 1.714569876355960254e+00 7.675040117885568947e+00
8.028514559173914877e-01 1.009865407966573786e-02 1.780951079799568681e+00 8.278188281616442268e+00
8.203047484373349185e-01 1.023986053080917780e-02 1.849000766120954209e+00 8.910635535675176300e+00
8.377580409572781273e-01 1.037954011547347066e-02 1.918672869971156603e+00 9.570330250657500315e+00
8.552113334772214470e-01 1.051776715531626410e-02 1.989905829809803350e+00 1.025464208875057004e+01
8.726646259971647668e-01 1.065461280533418209e-02 2.062628010366550413e+00 1.096116731307421510e+01
8.901179185171079755e-01 1.079014527871076205e-02 2.136776663976419854e+00 1.169012183955448592e+01
9.075712110370514063e-01 1.092443005440337997e-02 2.212292438999532873e+00 1.244094702821980825e+01
9.250245035569946150e-01 1.105753006908154375e-02 2.289116651310685313e+00 1.321258934873266000e+01
9.424777960769379348e-01 1.118950589486164895e-02 2.367191284299344112e+00 1.400389727763952408e+01
9.599310885968812546e-01 1.132041590484691475e-02 2.446458836830521122e+00 1.481359633122423958e+01
9.773843811168245743e-01 1.145031642785899681e-02 2.526860882544786246e+00 1.564002819088396734e+01
9.948376736367677831e-01 1.157926189166713637e-02 2.608337678074537092e+00 1.648130840688078536e+01
1.012290966156711214e+00 1.170730495631553715e-02 2.690831674730354894e+00 1.733615637724008707e+01
1.029744258676654312e+00 1.183449663858962553e-02 2.774284537861730460e+00 1.820260442241494658e+01
1.047197551196597631e+00 1.196088643036388038e-02 2.858630010199746163e+00 1.907689656460356176e+01
1.064650843716540951e+00 1.208652241015951805e-02 2.943810306676654776e+00 1.995882350759547919e+01
1.082104136236484271e+00 1.221145134599202660e-02 3.029768674323419564e+00 2.084656912000810181e+01
1.099557428756427591e+00 1.233571879203263291e-02 3.116446663857756594e+00 2.173757809635150906e+01
1.117010721276370910e+00 1.245936918264939700e-02 3.203786286387455551e+00 2.262972915194083612e+01
1.134464013796314230e+00 1.258244592150496721e-02 3.291732262132682330e+00 2.352147191883429045e+01
1.151917306316257550e+00 1.270499146322924197e-02 3.380214574390934423e+00 2.440637148139567714e+01
1.169370598836200648e+00 1.282704739195105782e-02 3.469173628858425396e+00 2.528467146484780770e+01
1.186823891356144189e+00 1.294865450010037992e-02 3.558558984692391292e+00 2.615661748261535990e+01
1.204277183876087287e+00 1.306985286010488474e-02 3.648310008798384629e+00 2.701683088233430752e+01
1.221730476396030607e+00 1.319068189207874518e-02 3.738358037333712414e+00 2.786017281789706956e+01
1.239183768915973927e+00 1.331118043344010210e-02 3.828661701180076982e+00 2.869264435392527801e+01
1.256637061435917246e+00 1.343138680426386559e-02 3.919139235152706124e+00 2.949877372239017959e+01
1.274090353955860566e+00 1.355133886756829803e-02 4.009753577502793043e+00 3.029053218444298778e+01
1.291543646475803886e+00 1.367107409214613802e-02 4.100425038988164239e+00 3.105114074050630890e+01
1.308996938995747206e+00 1.379062961358152803e-02 4.191109400965705944e+00 3.179009028119601865e+01
1.326450231515690303e+00 1.391004228981415798e-02 4.281740837356033502e+00 3.249741439382187735e+01
1.343903524035633845e+00 1.402934875971421393e-02 4.372257019867728189e+00 3.317171438647994108e+01
1.361356816555576943e+00 1.414858550140760812e-02 4.462612123160899280e+00 3.381673917108572169e+01
1.378810109075520263e+00 1.426778888530701520e-02 4.552730113127513079e+00 3.441872816309893324e+01
1.396263401595463582e+00 1.438699523067001051e-02 4.642558091283699895e+00 3.498401075402153282e+01
1.413716694115406902e+00 1.450624086290024269e-02 4.732047236860361217e+00 3.551214884226768476e+01
1.431169986635350000e+00 1.462556216600735537e-02 4.821120035196864606e+00 3.598943704676724309e+01
1.448623279155293542e+00 1.474499563909253269e-02 4.909725583038736296e+00 3.642437197887955591e+01
1.466076571675236861e+00 1.486457795442498210e-02 4.997814756698899075e+00 3.681592640184545928e+01
1.483529864195180181e+00 1.498434601126492384e-02 5.085308094012952473e+00 3.714935251975958153e+01
1.500983156715123279e+00 1.510433699401356709e-02 5.172159365902008865e+00 3.743686475861988328e+01
1.518436449235066599e+00 1.522458843307993026e-02 5.258310909368078434e+00 3.767203156849780044e+01
1.535889741755009918e+00 1.534513826213955608e-02 5.343690605206516508e+00 3.784681256591292708e+01
1.553343034274953460e+00 1.546602487960222275e-02 5.428260158508139810e+00 3.797488476768823773e+01
1.570796326794896558e+00 1.558728721453221840e-02 5.511934941386326336e+00 3.803406554272939388e+01
1.588249619314839878e+00 1.570896478975519761e-02 5.594680680056509203e+00 3.804612186318791345e+01
1.605702911834782975e+00 1.583109778848091134e-02 5.676413426340828572e+00 3.798718308898251195e+01
1.623156204354726295e+00 1.595372712758132833e-02 5.757099267414140797e+00 3.787971132695040666e+01
1.640609496874669837e+00 1.607689452953695031e-02 5.836655532838452842e+00 3.770011459104130580e+01
1.658062789394613157e+00 1.620064259705277301e-02 5.915038526654643469e+00 3.746631665161255853e+01
1.675516081914556255e+00 1.632501489522916044e-02 5.992231698563724507e+00 3.719151116515172362e+01
1.692969374434499574e+00 1.645005603636571362e-02 6.068246471587399604e+00 3.688996869323901251e+01
1.710422666954442894e+00 1.657581176684455940e-02 6.143104106607022885e+00 3.656757774368677616e+01
1.727875959474386436e+00 1.670232906004054038e-02 6.216827179235798084e+00 3.622616245396466894e+01
1.745329251994329534e+00 1.682965621749523202e-02 6.289437291740608948e+00 3.586640575933219566e+01
1.762782544514272853e+00 1.695784297341641766e-02 6.360955569582195324e+00 3.548920358379882600e+01
1.780235837034215951e+00 1.708694060507306989e-02 6.431402820564860789e+00 3.509550429832498253e+01
1.797689129554159271e+00 1.721700205098304973e-02 6.500799736801379680e+00 3.468633242147975437e+01
1.815142422074102813e+00 1.734808203890629910e-02 6.569167045994597665e+00 3.426276441514293936e+01
1.832595714594046132e+00 1.748023722150114298e-02 6.636525612762154580e+00 3.382590412381505729e+01
1.850049007113989230e+00 1.761352632076073482e-02 6.702896586139430291e+00 3.337690578903598038e+01
1.867502299633932550e+00 1.774801028332060812e-02 6.768301213632253344e+00 3.291680369990345412e+01
1.884955592153875870e+00 1.788375244770160424e-02 6.832761611921607248e+00 3.244699514916018046e+01
1.902408884673818967e+00 1.802081872478804650e-02 6.896299177785160772e+00 3.196804294516257272e+01
1.919862177193762509e+00 1.815927779281277174e-02 6.958932231921248324e+00 3.147928015328362150e+01
1.937315469713705829e+00 1.829920130756425636e-02 7.020681983722140806e+00 3.098302460010550163e+01
1.954768762233649149e+00 1.844066413005107652e-02 7.081571057463935226e+00 3.048082137381768675e+01
1.972222054753592246e+00 1.858374457362196516e-02 7.141620925447584867e+00 2.997288679426840829e+01
1.989675347273535566e+00 1.872852467264835355e-02 7.200850994056881227e+00 2.945894506851829675e+01
2.007128639793478886e+00 1.887509047515817384e-02 7.259282012535991591e+00 2.894039633775757281e+01
2.024581932313422428e+00 1.902353236213355850e-02 7.316935968422047409e+00 2.841854897832536864e+01
2.042035224833365525e+00 1.917394539655425945e-02 7.373834144995562667e+00 2.789370740518928926e+01
2.059488517353308623e+00 1.932642970568495752e-02 7.429997774407747002e+00 2.736646438667450809e+01
2.076941809873252165e+00 1.948109090057024984e-02 7.485449392757573150e+00 2.683803673002673662e+01
2.094395102393195263e+00 1.963804053721673534e-02 7.540217353474091055e+00 2.631177342189255342e+01
2.111848394913138804e+00 1.979739662455760538e-02 7.594335535742476218e+00 2.579077094503839263e+01
2.129301687433081902e+00 1.995928418606629159e-02 7.647836285862183558e+00 2.527463964946973718e+01
2.146754979953025444e+00 2.012383588171412843e-02 7.700749108802215304e+00 2.476233213492351481e+01
2.164208272472968542e+00 2.029119269655299193e-02 7.753102291828136927e+00 2.425354376477469387e+01
2.181661564992911639e+00 2.046150470483068529e-02 7.804923241850915794e+00 2.374809277030562882e+01
2.199114857512855181e+00 2.063493192541365068e-02 7.856238239648677180e+00 2.324565005488310376e+01
2.216568150032798723e+00 2.081164527618924870e-02 7.907072386130065134e+00 2.274583522701120941e+01
2.234021442552741821e+00 2.099182763879612126e-02 7.957449788144808522e+00 2.224832892574262644e+01
2.251474735072684918e+00 2.117567506324946613e-02 8.007393655248819186e+00 2.175283149907445335e+01
2.268928027592628460e+00 2.136339811489323254e-02 8.056926351069488845e+00 2.125904510408103931e+01
2.286381320112572002e+00 2.155522340497709882e-02 8.106069446488067598e+00 2.076667493135179399e+01
2.303834612632515100e+00 2.175139532113888260e-02 8.154843753313979704e+00 2.027542265598738069e+01
2.321287905152458197e+00 2.195217798985675886e-02 8.203269412589841991e+00 1.978501093041873915e+01
2.338741197672401295e+00 2.215785744449989825e-02 8.251365915374353932e+00 1.929516219368591834e+01
2.356194490192344837e+00 2.236871648323722483e-02 8.299152164970394097e+00 1.880807951917255139e+01
2.373647782712288379e+00 2.258487917188154587e-02 8.346646517702600576e+00 1.833889911015521434e+01
2.391101075232231477e+00 2.280622752427812275e-02 8.393866806699115557e+00 1.790665311573898677e+01
2.408554367752174574e+00 2.303267104382550681e-02 8.440830406523208040e+00 1.750598922801283663e+01
2.426007660272118116e+00 2.326411909232922390e-02 8.487554246221943544e+00 1.713434728003095486e+01
2.443460952792061214e+00 2.350048083984803207e-02 8.534054851225835847e+00 1.678946436486400273e+01
2.460914245312004311e+00 2.374166534270220896e-02 8.580348385289239488e+00 1.646932723908955154e+01
2.478367537831947853e+00 2.398758165661766736e-02 8.626450659219099038e+00 1.617212721684088450e+01
2.495820830351891395e+00 2.423813901608797006e-02 8.672377180785586503e+00 1.589624501423860181e+01
2.513274122871834493e+00 2.449324710556775170e-02 8.718143176670567485e+00 1.564021374476276982e+01
2.530727415391777591e+00 2.475281641647789077e-02 8.763763606433665032e+00 1.540269381868904475e+01
2.548180707911721132e+00 2.501675858615521469e-02 8.809253210128721534e+00 1.518247114010106813e+01
2.565634000431664674e+00 2.528498640132918751e-02 8.854626518673471836e+00 1.497845034526805286e+01
2.583087292951607772e+00 2.555741265448297633e-02 8.899897874577748169e+00 1.478970692168413592e+01
2.600540585471550870e+00 2.583392917445420656e-02 8.945081472927238764e+00 1.461652159221017477e+01
2.617993877991494411e+00 2.611444622144262415e-02 8.990191366837912312e+00 1.445710993854344295e+01
2.635447170511437509e+00 2.639888446999276439e-02 9.035241493000009783e+00 1.431026844102186324e+01
2.652900463031380607e+00 2.668715831007342429e-02 9.080245705189501138e+00 1.417573319641954122e+01
2.670353755551324149e+00 2.697915426677881603e-02 9.125217778060076057e+00 1.405430278915870268e+01
2.687807048071267690e+00 2.727480432046033160e-02 9.170171438599357572e+00 1.394326734612676510e+01
2.705260340591210788e+00 2.757400036116968919e-02 9.215120395765302064e+00 1.384410204647904230e+01
2.722713633111153886e+00 2.787666727426622859e-02 9.260078343751706242e+00 1.375486062447855495e+01
2.740166925631096984e+00 2.818269640841153043e-02 9.305058989321365104e+00 1.367672269414436492e+01
2.757620218151040525e+00 2.849202007257242014e-02 9.350076070864513866e+00 1.360753106486552078e+01
2.775073510670984067e+00 2.880452743332919882e-02 9.395143366229971704e+00 1.354891929781643611e+01
2.792526803190927165e+00 2.912012713553947807e-02 9.440274756491472630e+00 1.349978219964020099e+01
2.809980095710870263e+00 2.943873679804573720e-02 9.485484258355251441e+00 1.345954215210099747e+01
2.827433388230813804e+00 2.976026827037705352e-02 9.530786013020982494e+00 1.342827582640337170e+01
2.844886680750756902e+00 3.008462877397164587e-02 9.576194222469027295e+00 1.340600437322429883e+01
2.862339973270700000e+00 3.041172365235861319e-02 9.621723127345283899e+00 1.339264372376769252e+01
2.879793265790643542e+00 3.074145897680195805e-02 9.667387140343624452e+00 1.338806185785252723e+01
2.897246558310587083e+00 3.107374647245620541e-02 9.713201299389524479e+00 1.339208230808987921e+01
2.914699850830530625e+00 3.140850955522306309e-02 9.759181356746895020e+00 1.340433702651480274e+01
2.932153143350473723e+00 3.174565096694310223e-02 9.805343037277548746e+00 1.342555666689021265e+01
2.949606435870416821e+00 3.208505645442595589e-02 9.851700653301385557e+00 1.345592139521924757e+01
2.967059728390360362e+00 3.242668032573062242e-02 9.898266763281981184e+00 1.349214201443181871e+01
2.984513020910303460e+00 3.277038193254755427e-02 9.945048369092726048e+00 1.353631531956990663e+01
3.001966313430246558e+00 3.311609840696237705e-02 9.992043400153553634e+00 1.358270214765418160e+01
3.019419605950190100e+00 3.346375476834012597e-02 1.003924115381005855e+01 1.362925243185530633e+01
3.036872898470133197e+00 3.381323089662350428e-02 1.008662831049755226e+01 1.367694665000062315e+01
3.054326190990076295e+00 3.416444056775019833e-02 1.013419253049707081e+01 1.372470642655376238e+01
3.071779483510019837e+00 3.451729935243964126e-02 1.018192250224488404e+01 1.377272989811743287e+01
3.089232776029963379e+00 3.487172151913594392e-02 1.022980771477478434e+01 1.382127199120042427e+01
3.106686068549906921e+00 3.522760734273795019e-02 1.027783773055165106e+01 1.387087306131486919e+01
3.124139361069850018e+00 3.558486056826447308e-02 1.032600204053074222e+01 1.392135123180076306e+01
3.141592653589793116e+00 3.594339210746890639e-02 1.037429006415768740e+01 1.397238203485307828e+01
3.159045946109736214e+00 3.630311660117493955e-02 1.042269114936849661e+01 1.402377573040018000e+01
3.176499238629679756e+00 3.666394763481029689e-02 1.047119457258955322e+01 1.407552939300676087e+01
3.193952531149622853e+00 3.702579720936700208e-02 1.051978953873761924e+01 1.412766111846407924e+01
3.211405823669565951e+00 3.738857554214825019e-02 1.056846518121983891e+01 1.418019727922995443e+01
3.228859116189509493e+00 3.775219105606203440e-02 1.061721056193372270e+01 1.423316528468130215e+01
3.246312408709452590e+00 3.811655037962115300e-02 1.066601464806039878e+01 1.428658645063786636e+01
3.263765701229396576e+00 3.848155893234684460e-02 1.071486627845738759e+01 1.434044992314847811e+01
3.281218993749339674e+00 3.884712312798808964e-02 1.076375437733123519e+01 1.439472176233522838e+01
3.298672286269282772e+00 3.921315040634405086e-02 1.081266801345734763e+01 1.444938506054104366e+01
3.316125578789226314e+00 3.957954909486878503e-02 1.086159640018000871e+01 1.450442934807580997e+01
3.333578871309169411e+00 3.994622840867124297e-02 1.091052889541236581e+01 1.455984515791066869e+01
3.351032163829112509e+00 4.031309845051526258e-02 1.095945500163644049e+01 1.461562401969058200e+01
3.368485456349056051e+00 4.068007021081956887e-02 1.100836436590311962e+01 1.467175845644955423e+01
3.385938748868999149e+00 4.104705556765778085e-02 1.105724675397857659e+01 1.472823415982642459e+01
3.403392041388942246e+00 4.141396723664411694e-02 1.110609170113921529e+01 1.478493349099667498e+01
3.420845333908885788e+00 4.178071713934097126e-02 1.115488826139091572e+01 1.484172655930779428e+01
3.438298626428828886e+00 4.214721445064412153e-02 1.120362500198002031e+01 1.489855855797684470e+01
