# angles(rad), pulling distance(m),                                     elastic band force(n), cable force(n)
0.000000000000000000e+00 3.003183441944562416e-04 2.033956343471556710e-02 1.377531039019544608e-02
1.745329251994329547e-02 5.952134949068790771e-04 4.098679687852409270e-02 2.869711357478756455e-02
3.490658503988659095e-02 8.849438211173425370e-04 6.195822407290818568e-02 4.484695828128345413e-02
5.235987755982988295e-02 1.169724770204847624e-03 8.327076305500454023e-02 6.231847282499836799e-02
6.981317007977318190e-02 1.449617799826961005e-03 1.049423580356098479e-01 8.125490951767974646e-02
8.726646259971647390e-02 1.724673104916139062e-03 1.269921715177893817e-01 1.018032971498711164e-01
1.047197551196597659e-01 1.994948557278234270e-03 1.494405921605174714e-01 1.241217152574880106e-01
1.221730476396030718e-01 2.260453463480814433e-03 1.723093913773361963e-01 1.484156707663217833e-01
1.396263401595463638e-01 2.521237868632856139e-03 1.956218510895755824e-01 1.748734369181554338e-01
1.570796326794896558e-01 2.777366332786927652e-03 2.194029135272514142e-01 2.037116180285585554e-01
1.745329251994329478e-01 3.028880547176389555e-03 2.436793498656113777e-01 2.352020635631045520e-01
1.919862177193762398e-01 3.275804123871981464e-03 2.684799546848677942e-01 2.696569257232103722e-01
2.094395102393195318e-01 3.518189390700500289e-03 2.938357483078360977e-01 3.073800107832027617e-01
2.268928027592628516e-01 3.756093500636684731e-03 3.197802721199061171e-01 3.487349120143660719e-01
2.443460952792061436e-01 3.989551468996977573e-03 3.463496924085400219e-01 3.941741894300964111e-01
2.617993877991494078e-01 4.218596525140585335e-03 3.735827479756407277e-01 4.441833369305282497e-01
2.792526803190927276e-01 4.443285526615035376e-03 4.015093407097638512e-01 4.990359013288381274e-01
2.967059728390360474e-01 4.663670809873054872e-03 4.301567211034122429e-01 5.591509122642629448e-01
3.141592653589793116e-01 4.879775994642114589e-03 4.595544611843744298e-01 6.251521738074964363e-01
3.316125578789225758e-01 5.091646092346906183e-03 4.897333081501559215e-01 6.975777479133707937e-01
3.490658503988658956e-01 5.299339574576744823e-03 5.207198536026239610e-01 7.768808745670923166e-01
3.665191429188092154e-01 5.502902748256292484e-03 5.525419057525104982e-01 8.637621934276530355e-01
3.839724354387524796e-01 5.702357685252602837e-03 5.852318130536023899e-01 9.591727337752528060e-01
4.014257279586957439e-01 5.897761415775822254e-03 6.188154765255635681e-01 1.063546261846129992e+00
4.188790204786390636e-01 6.089168863899386760e-03 6.533208142265858331e-01 1.177752252746317785e+00
4.363323129985823834e-01 6.276600330101659783e-03 6.887821024759943622e-01 1.303148354533794295e+00
4.537856055185257032e-01 6.460111419957355501e-03 7.252206254531902152e-01 1.440020243184898963e+00
4.712388980384689674e-01 6.639751228379297404e-03 7.626692441615582352e-01 1.589898696513912135e+00
4.886921905584122872e-01 6.815564037119268247e-03 8.011586705772921757e-01 1.753918722959420640e+00
5.061454830783556069e-01 6.987689926843435387e-03 8.407113156566418111e-01 1.931862564989340836e+00
5.235987755982988157e-01 7.156318007773746978e-03 8.813628412756241426e-01 2.124719911658244254e+00
5.410520681182421354e-01 7.321639815155207669e-03 9.231384710937290405e-01 2.332704417529102070e+00
5.585053606381854552e-01 7.483832322295706774e-03 9.660648156176202539e-01 2.556815468157748406e+00
5.759586531581287749e-01 7.643058383162808223e-03 1.010176731410719730e+00 2.798589041861127225e+00
5.934119456780720947e-01 7.799471248067750898e-03 1.055499468263929819e+00 3.058452044715264329e+00
6.108652381980153034e-01 7.953214891055500335e-03 1.102058541774956435e+00 3.337427399456322163e+00
6.283185307179586232e-01 8.104424140844133928e-03 1.149886576256660131e+00 3.637132972759831606e+00
6.457718232379019430e-01 8.253225754595241645e-03 1.199015076130038215e+00 3.958680993497941447e+00
6.632251157578451517e-01 8.399739106737254268e-03 1.249471327829049239e+00 4.302927950657563727e+00
6.806784082777884715e-01 8.544076843287807047e-03 1.301279264807111202e+00 4.670753176067287349e+00
6.981317007977317912e-01 8.686345336597867464e-03 1.354469356127457225e+00 5.063970740592277586e+00
7.155849933176750000e-01 8.826645185031180632e-03 1.409071133101340134e+00 5.483811180773003002e+00
7.330382858376184307e-01 8.965071758913197714e-03 1.465113962847773621e+00 5.931601864897908527e+00
7.504915783575616395e-01 9.101715440523194117e-03 1.522627982472852581e+00 6.408818514974197633e+00
7.679448708775049592e-01 9.236662210784979399e-03 1.581642853892097023e+00 6.916834650620902636e+00
7.853981633974482790e-01 9.369993782747398220e-03 1.642183966265265527e+00 7.456571806346373954e+00
8.028514559173914877e-01 9.501788030503331359e-03 1.704278853137421557e+00 8.029713313448571199e+00
8.203047484373349185e-01 9.632119291599265318e-03 1.767924849800017073e+00 8.633488093640655947e+00
8.377580409572781273e-01 9.761058476457643712e-03 1.833089916633607430e+00 9.264323103997574194e+00
8.552113334772214470e-01 9.888673501961669013e-03 1.899731083646075902e+00 9.920485140681348568e+00
8.726646259971647668e-01 1.001502940587856855e-02 1.967795666401421562e+00 1.059999468402173939e+01
8.901179185171079755e-01 1.014018849189104315e-02 2.037224576210097560e+00 1.130099986089791742e+01
9.075712110370514063e-01 1.026421068150686587e-02 2.107964079744785835e+00 1.202335912081629488e+01
9.250245035569946150e-01 1.038715356695873830e-02 2.179963184648402663e+00 1.276652955074523454e+01
9.424777960769379348e-01 1.050907254032912123e-02 2.253172158388516699e+00 1.352967604757504283e+01
9.599310885968812546e-01 1.063002108691819304e-02 2.327542524038897831e+00 1.431188662131683564e+01
9.773843811168245743e-01 1.075005082578019480e-02 2.403025211181694321e+00 1.511182161451007744e+01
9.948376736367677831e-01 1.086921158649604632e-02 2.479565820513086383e+00 1.592701134494510029e+01
1.012290966156711214e+00 1.098755166901096286e-02 2.557108482982206610e+00 1.675552321571349523e+01
1.029744258676654312e+00 1.110511789855177060e-02 2.635608820380983097e+00 1.759826630990872687e+01
1.047197551196597631e+00 1.122195565033989005e-02 2.715021302543560111e+00 1.845350303814910475e+01
1.064650843716540951e+00 1.133810905480803211e-02 2.795289159031927984e+00 1.931685688319228689e+01
1.082104136236484271e+00 1.145362109921932263e-02 2.876358145695969259e+00 2.018693733132817414e+01
1.099557428756427591e+00 1.156853363010016886e-02 2.958179084389826130e+00 2.106306315368561144e+01
1.117010721276370910e+00 1.168288745808441706e-02 3.040702661699769216e+00 2.194326727863413495e+01
1.134464013796314230e+00 1.179672252184655809e-02 3.123879067464825798e+00 2.282539529466468053e+01
1.151917306316257550e+00 1.191007790237134586e-02 3.207658878647897005e+00 2.370748119310106006e+01
1.169370598836200648e+00 1.202299184184569061e-02 3.291992715023734473e+00 2.458743147849696342e+01
1.186823891356144189e+00 1.213550189742413320e-02 3.376818772057158746e+00 2.545925519966958106e+01
1.204277183876087287e+00 1.224764501609821449e-02 3.462090088725599202e+00 2.632501965175149294e+01
1.221730476396030607e+00 1.235945753524233214e-02 3.547761472856413079e+00 2.718314892394332816e+01
1.239183768915973927e+00 1.247097523241741043e-02 3.633783216961020912e+00 2.803002374863377710e+01
1.256637061435917246e+00 1.258223347053778057e-02 3.720092711396236762e+00 2.885892555887563304e+01
1.274090353955860566e+00 1.269326722417627243e-02 3.806653023957653925e+00 2.967611782624711125e+01
1.291543646475803886e+00 1.280411108122369787e-02 3.893402714700653355e+00 3.047092463533886786e+01
1.308996938995747206e+00 1.291479932281749260e-02 3.980296262940083984e+00 3.124650462876233803e+01
1.326450231515690303e+00 1.302536603709137167e-02 4.067281630214676369e+00 3.199823642557209169e+01
1.343903524035633845e+00 1.313584512786413784e-02 4.154307309784149638e+00 3.272396742637869949e+01
1.361356816555576943e+00 1.324627032090706404e-02 4.241322570831359329e+00 3.342170210586321133e+01
1.378810109075520263e+00 1.335667526682186683e-02 4.328278498539282815e+00 3.408991047458859214e+01
1.396263401595463582e+00 1.346709362516457231e-02 4.415118754268719137e+00 3.472339631300572904e+01
1.413716694115406902e+00 1.357755906691439016e-02 4.501802676126922087e+00 3.532633421067850321e+01
1.431169986635350000e+00 1.368810528963318972e-02 4.588264660459443256e+00 3.588638828440389261e+01
1.448623279155293542e+00 1.379876613940096176e-02 4.674470983482138742e+00 3.641477147590421026e+01
1.466076571675236861e+00 1.390957566959603008e-02 4.760353330638985803e+00 3.689486965710333521e+01
1.483529864195180181e+00 1.402056814127322810e-02 4.845873751251184913e+00 3.733777211898515702e+01
1.500983156715123279e+00 1.413177805634538951e-02 4.930974344454329028e+00 3.773304219414816174e+01
1.518436449235066599e+00 1.424324029461679700e-02 5.015606081957015405e+00 3.808280399963496166e+01
1.535889741755009918e+00 1.435499014915313232e-02 5.099720858826985115e+00 3.838590071720294361e+01
1.553343034274953460e+00 1.446706332690634277e-02 5.183261689608102962e+00 3.863671900687219818e+01
1.570796326794896558e+00 1.457949602013954189e-02 5.266185236741267595e+00 3.884019382023811318e+01
1.588249619314839878e+00 1.469232504295230578e-02 5.348433271256448407e+00 3.898802926144598757e+01
1.605702911834782975e+00 1.480558784666484093e-02 5.429959084876631259e+00 3.908448473890972252e+01
1.623156204354726295e+00 1.491932252902119366e-02 5.510713816935536968e+00 3.912757379895948162e+01
1.640609496874669837e+00 1.503356797025671640e-02 5.590637014523024639e+00 3.911067101841755544e+01
1.658062789394613157e+00 1.514836393701062336e-02 5.669692767477139128e+00 3.904508524348055687e+01
1.675516081914556255e+00 1.526375108496026874e-02 5.747818159519447079e+00 3.891685989988353356e+01
1.692969374434499574e+00 1.537977101581000997e-02 5.824962124515748130e+00 3.873133443083979444e+01
1.710422666954442894e+00 1.549646646955005723e-02 5.901096388646429602e+00 3.849984011499137182e+01
1.727875959474386436e+00 1.561388136495816918e-02 5.976225752241424161e+00 3.823961482104243004e+01
1.745329251994329534e+00 1.573206081431140213e-02 6.050367850725902663e+00 3.795811975016346906e+01
1.762782544514272853e+00 1.585105131292863928e-02 6.123538482095467472e+00 3.765537434985113663e+01
1.780235837034215951e+00 1.597090087086541071e-02 6.195756840275048916e+00 3.733408736648279103e+01
1.797689129554159271e+00 1.609165901880116323e-02 6.267041606521653208e+00 3.699498573101046617e+01
1.815142422074102813e+00 1.621337696427487679e-02 6.337411394094834449e+00 3.663899286425390045e+01
1.832595714594046132e+00 1.633610781446826268e-02 6.406884732292371432e+00 3.626697518169476808e+01
1.850049007113989230e+00 1.645990659443958767e-02 6.475480132647631670e+00 3.587984892051336772e+01
1.867502299633932550e+00 1.658483039480904489e-02 6.543216318139453591e+00 3.547862880634652782e+01
1.884955592153875870e+00 1.671093866202540135e-02 6.610111877193637575e+00 3.506408732719567212e+01
1.902408884673818967e+00 1.683829323443571807e-02 6.676183550958167068e+00 3.463610400652527943e+01
1.919862177193762509e+00 1.696695853308214860e-02 6.741449304220664906e+00 3.419614857693467513e+01
1.937315469713705829e+00 1.709700189568753165e-02 6.805927912819297099e+00 3.374541793208113205e+01
1.954768762233649149e+00 1.722849362373941179e-02 6.869639037448481034e+00 3.328516822744221315e+01
1.972222054753592246e+00 1.736150729826606981e-02 6.932601361167021636e+00 3.281562536082854820e+01
1.989675347273535566e+00 1.749612010032627896e-02 6.994831357467445443e+00 3.233632483949004666e+01
2.007128639793478886e+00 1.763241290937547778e-02 7.056347830617968775e+00 3.184919548516136345e+01
2.024581932313422428e+00 1.777047081223205593e-02 7.117169761202981171e+00 3.135496021747659157e+01
2.042035224833365525e+00 1.791038330285630101e-02 7.177315281590103346e+00 3.085381159806686568e+01
2.059488517353308623e+00 1.805224465976850920e-02 7.236802948021813009e+00 3.034656718181199153e+01
2.076941809873252165e+00 1.819615444731004228e-02 7.295650943950980682e+00 2.983358146688552637e+01
2.094395102393195263e+00 1.834221777225700581e-02 7.353877062838515499e+00 2.931521107715666119e+01
2.111848394913138804e+00 1.849054599827371081e-02 7.411499848188444872e+00 2.879231258554289141e+01
2.129301687433081902e+00 1.864125704280431700e-02 7.468538128689379718e+00 2.826551790168264588e+01
2.146754979953025444e+00 1.879447620483790798e-02 7.525010346414903850e+00 2.773504417002366296e+01
2.164208272472968542e+00 1.895033660170033357e-02 7.580934641265514529e+00 2.720116416074315069e+01
2.181661564992911639e+00 1.910898011857953965e-02 7.636329030905894655e+00 2.666417097158959493e+01
2.199114857512855181e+00 1.927055801272737831e-02 7.691212164635011561e+00 2.612472628121044593e+01
2.216568150032798723e+00 1.943523204131310592e-02 7.745603807756213932e+00 2.558364070448306649e+01
2.234021442552741821e+00 1.960317529792537927e-02 7.799525951906784549e+00 2.504221789957148658e+01
2.251474735072684918e+00 1.977457348749292812e-02 7.853002943640295719e+00 2.450171583258086017e+01
2.268928027592628460e+00 1.994962622127837565e-02 7.906058849234989694e+00 2.396210004039227215e+01
2.286381320112572002e+00 2.012854841474567488e-02 7.958716165286368494e+00 2.342273053763418744e+01
2.303834612632515100e+00 2.031157190029595633e-02 8.010996417538128966e+00 2.288323338601152557e+01
2.321287905152458197e+00 2.049894777464508766e-02 8.062920634675053932e+00 2.234336961718903680e+01
2.338741197672401295e+00 2.069094797468051458e-02 8.114509301963892085e+00 2.180293148204785325e+01
2.356194490192344837e+00 2.088786658999105400e-02 8.165782275988439309e+00 2.126177567654563560e+01
2.373647782712288379e+00 2.109002344909304341e-02 8.216758809624890247e+00 2.071964729280463047e+01
2.391101075232231477e+00 2.129761728097084514e-02 8.267457659889975830e+00 2.019089845686926665e+01
2.408554367752174574e+00 2.151064768879592387e-02 8.317897114571209727e+00 1.969438066785615504e+01
2.426007660272118116e+00 2.172902902094237670e-02 8.368095032583935833e+00 1.923520404604210299e+01
2.443460952792061214e+00 2.195269372697869134e-02 8.418068869154318179e+00 1.880865360299757683e+01
2.460914245312004311e+00 2.218156790850363963e-02 8.467835702372990880e+00 1.841262148116918596e+01
2.478367537831947853e+00 2.241556378173807304e-02 8.517412283841169440e+00 1.804579619935654478e+01
2.495820830351891395e+00 2.265459275434878600e-02 8.566815049787392056e+00 1.770598577179602628e+01
2.513274122871834493e+00 2.289858259351737479e-02 8.616060164811662148e+00 1.739002227789502797e+01
2.530727415391777591e+00 2.314746292827510321e-02 8.665163543497817145e+00 1.709611999951830441e+01
2.548180707911721132e+00 2.340116230865382438e-02 8.714140871175922953e+00 1.682287643917904774e+01
2.565634000431664674e+00 2.365960990692701424e-02 8.763007645253967581e+00 1.656892606880261809e+01
2.583087292951607772e+00 2.392273487619504813e-02 8.811779183328624754e+00 1.633307645187436563e+01
2.600540585471550870e+00 2.419046721389061724e-02 8.860470659269820359e+00 1.611420561471640056e+01
2.617993877991494411e+00 2.446273658833387002e-02 8.909097126115028686e+00 1.591137148309957361e+01
2.635447170511437509e+00 2.473946244924798976e-02 8.957673529291957593e+00 1.572428248840914478e+01
2.652900463031380607e+00 2.502054804162730586e-02 9.006214747024007039e+00 1.555300744077054631e+01
2.670353755551324149e+00 2.530592183057633199e-02 9.054735599227100806e+00 1.539536932828372429e+01
2.687807048071267690e+00 2.559551807458589415e-02 9.103250873261487186e+00 1.525042951542791769e+01
2.705260340591210788e+00 2.588927018244122427e-02 9.151775351593620655e+00 1.511768300119439168e+01
2.722713633111153886e+00 2.618711154695379031e-02 9.200323820664801033e+00 1.499662873165319432e+01
2.740166925631096984e+00 2.648896217191854321e-02 9.248911116999357418e+00 1.488748235211047799e+01
2.757620218151040525e+00 2.679472490304601537e-02 9.297552144740748759e+00 1.479063488646159286e+01
2.775073510670984067e+00 2.710432848788162097e-02 9.346261880269381095e+00 1.470441450511588144e+01
2.792526803190927165e+00 2.741772447561519402e-02 9.395055381109262527e+00 1.462742538422697436e+01
2.809980095710870263e+00 2.773484286674366903e-02 9.443947798087759082e+00 1.456041171324556238e+01
2.827433388230813804e+00 2.805556837140091644e-02 9.492954509388148665e+00 1.450519133258461579e+01
2.844886680750756902e+00 2.837984284349036324e-02 9.542091209195820767e+00 1.445895103190040309e+01
2.862339973270700000e+00 2.870760780644089974e-02 9.591373781809348742e+00 1.442154068605684891e+01
2.879793265790643542e+00 2.903876786451473763e-02 9.640817912351185015e+00 1.439430413682601895e+01
2.897246558310587083e+00 2.937326287721098161e-02 9.690439088537186052e+00 1.437543063664947063e+01
2.914699850830530625e+00 2.971102424441756512e-02 9.740253935339833191e+00 1.436544568790438525e+01
2.932153143350473723e+00 3.005195517323919208e-02 9.790281354660875124e+00 1.436603338668775187e+01
2.949606435870416821e+00 3.039598224353732767e-02 9.840540142559545345e+00 1.437600882409212488e+01
2.967059728390360362e+00 3.074304452898259446e-02 9.891041243739373101e+00 1.439247350034282391e+01
2.984513020910303460e+00 3.109306934170213976e-02 9.941786393125550347e+00 1.441319064682566697e+01
3.001966313430246558e+00 3.144597877543350156e-02 9.992770633259679514e+00 1.443638987443975097e+01
3.019419605950190100e+00 3.180169500165765106e-02 1.004398410922148521e+01 1.446060935140598502e+01
3.036872898470133197e+00 3.216014199927878098e-02 1.009541292707759652e+01 1.448457250457079226e+01
3.054326190990076295e+00 3.252124612284437721e-02 1.014704316686520080e+01 1.450812210803398017e+01
3.071779483510019837e+00 3.288493377800406209e-02 1.019886210852322606e+01 1.453154191741143286e+01
3.089232776029963379e+00 3.325113005087555057e-02 1.025085821403167863e+01 1.455516466810259324e+01
3.106686068549906921e+00 3.361975989636433598e-02 1.030302052809551583e+01 1.457910690546718513e+01
3.124139361069850018e+00 3.399074990982137168e-02 1.035533795635551968e+01 1.460321385989196408e+01
3.141592653589793116e+00 3.436402834422021962e-02 1.040779922246184164e+01 1.462732036663352098e+01
3.159045946109736214e+00 3.473952326131139745e-02 1.046039286807399549e+01 1.465133535572747725e+01
3.176499238629679756e+00 3.511716111305446253e-02 1.051310725286086978e+01 1.467522332507125249e+01
3.193952531149622853e+00 3.549686670545806194e-02 1.056593055450070828e+01 1.469894960600797695e+01
3.211405823669565951e+00 3.587856359436143727e-02 1.061885076868113487e+01 1.472246364498996840e+01
3.228859116189509493e+00 3.626217542138094468e-02 1.067185570909912684e+01 1.474566309399692088e+01
3.246312408709452590e+00 3.664762619549973011e-02 1.072493312990523329e+01 1.476846920737763647e+01
3.263765701229396576e+00 3.703484029306775005e-02 1.077807111718915678e+01 1.479091307799863664e+01
3.281218993749339674e+00 3.742374245780175773e-02 1.083125781825932599e+01 1.481295102041110212e+01
3.298672286269282772e+00 3.781425780078532389e-02 1.088448134335171780e+01 1.483451230032566315e+01
3.316125578789226314e+00 3.820631180046880904e-02 1.093772976562987154e+01 1.485552637633603368e+01
3.333578871309169411e+00 3.859983030266937731e-02 1.099099112118488364e+01 1.487592280245641874e+01
3.351032163829112509e+00 3.899473900855399133e-02 1.104425343682302696e+01 1.489565825655907361e+01
3.368485456349056051e+00 3.939096196288112417e-02 1.109750489098732196e+01 1.491479144725555273e+01
3.385938748868999149e+00 3.978842318722286553e-02 1.115073387116723680e+01 1.493333577892722985e+01
3.403392041388942246e+00 4.018704721627467530e-02 1.120392895489185747e+01 1.495127978656563172e+01
3.420845333908885788e+00 4.058675909785541130e-02 1.125707886702040561e+01 1.496860063904380844e+01
3.438298626428828886e+00 4.098748439290730156e-02 1.131017190287601970e+01 1.498511248946211261e+01
