# angles(rad), pulling distance(m),                                     elastic band force(n), cable force(n)
0.000000000000000000e+00 3.407342476193569655e-04 2.508820837479197943e-02 1.847240786198050752e-02
1.745329251994329547e-02 6.702862117640845385e-04 5.058657145038606556e-02 3.914025422178817742e-02
3.490658503988659095e-02 9.894077634038534602e-04 7.652604547104979726e-02 6.220342556623027763e-02
5.235987755982988295e-02 1.298484054872128465e-03 1.029378484954003303e-01 8.796450110409125001e-02
6.981317007977318190e-02 1.597796494211870932e-03 1.298534603964043022e-01 1.167704673999472170e-01
8.726646259971647390e-02 1.887596549813764027e-03 1.573046215316685759e-01 1.490059932534874843e-01
1.047197551196597659e-01 2.168074260971021572e-03 1.853213943859601254e-01 1.851165780742173306e-01
1.221730476396030718e-01 2.439495735705892333e-03 2.139263468506000243e-01 2.254557414284546202e-01
1.396263401595463638e-01 2.702116475019159490e-03 2.431344033396036497e-01 2.704083236431806814e-01
1.570796326794896558e-01 2.956190451348242234e-03 2.729580039041286099e-01 3.204023724485217661e-01
1.745329251994329478e-01 3.201967303923478406e-03 3.034089292867457321e-01 3.759134584613581520e-01
1.919862177193762398e-01 3.439696676545044712e-03 3.344988542937810116e-01 4.374530660747415478e-01
2.094395102393195318e-01 3.669622182411639167e-03 3.662396409017861787e-01 5.055869832901795924e-01
2.268928027592628516e-01 3.892062557471249670e-03 3.986432783282675696e-01 5.807170685623692652e-01
2.443460952792061436e-01 4.107497370502062942e-03 4.317218279602070274e-01 6.628794906666628517e-01
2.617993877991494078e-01 4.316431122224836069e-03 4.654873202629862261e-01 7.522675680584192115e-01
2.792526803190927276e-01 4.519299753010254904e-03 4.999516152979414652e-01 8.493417590547047702e-01
2.967059728390360474e-01 4.716505159931704341e-03 5.351263026558359392e-01 9.544819630834244784e-01
3.141592653589793116e-01 4.908411660550649445e-03 5.710224754346890919e-01 1.068099380307730994e+00
3.316125578789225758e-01 5.095351880270674629e-03 6.076509215223740989e-01 1.190611044132095175e+00
3.490658503988658956e-01 5.277630646530526333e-03 6.450234198660232954e-01 1.322487373882750727e+00
3.665191429188092154e-01 5.455527555950267539e-03 6.831531252942854016e-01 1.464242831133587330e+00
3.839724354387524796e-01 5.629300062007797610e-03 7.220529842450182922e-01 1.616352314835586279e+00
4.014257279586957439e-01 5.799185650327945245e-03 7.617342367453309171e-01 1.779230886228130748e+00
4.188790204786390636e-01 5.965403899623635334e-03 8.022069529015204425e-01 1.953305033645708511e+00
4.363323129985823834e-01 6.128158374724772782e-03 8.434820103593926310e-01 2.139097460799840977e+00
4.537856055185257032e-01 6.287638015657743239e-03 8.855714849836407998e-01 2.337178484170435055e+00
4.712388980384689674e-01 6.444018768300063468e-03 9.284880231142047524e-01 2.548107166288770653e+00
4.886921905584122872e-01 6.597464567435995693e-03 9.722440933552302100e-01 2.772417432072392440e+00
5.061454830783556069e-01 6.748128622749578406e-03 1.016851924947011376e+00 3.010642407534191101e+00
5.235987755982988157e-01 6.896154299934969048e-03 1.062323209430368731e+00 3.263298759226954449e+00
5.410520681182421354e-01 7.041675914644308053e-03 1.108668853938535204e+00 3.530882521097669535e+00
5.585053606381854552e-01 7.184819760102968689e-03 1.155898992076832776e+00 3.813874700290506237e+00
5.759586531581287749e-01 7.325704398198368099e-03 1.204024142847619938e+00 4.112857454832853144e+00
5.934119456780720947e-01 7.464441707455774129e-03 1.253057043133451787e+00 4.428586757036464761e+00
6.108652381980153034e-01 7.601137198705282261e-03 1.303012809632131397e+00 4.761898367515130737e+00
6.283185307179586232e-01 7.735890454120872457e-03 1.353908908015622803e+00 5.113693229312236355e+00
6.457718232379019430e-01 7.868795909457224416e-03 1.405762926592028839e+00 5.484685088738232572e+00
6.632251157578451517e-01 7.999942945784354817e-03 1.458588890017890272e+00 5.875189063766380393e+00
6.806784082777884715e-01 8.129416330142611585e-03 1.512396912985897846e+00 6.285391258910062007e+00
6.981317007977317912e-01 8.257296796605946912e-03 1.567193200224891836e+00 6.715362489168237303e+00
7.155849933176750000e-01 8.383661088806098477e-03 1.622980046499862272e+00 7.165073042788163704e+00
7.330382858376184307e-01 8.508582246884371231e-03 1.679755836611947828e+00 7.634372454286300957e+00
7.504915783575616395e-01 8.632130138339941944e-03 1.737515045398438485e+00 8.122962933197950264e+00
7.679448708775049592e-01 8.754371515484162675e-03 1.796248237732771980e+00 8.630415959933026571e+00
7.853981633974482790e-01 8.875370098463800095e-03 1.855940473688054704e+00 9.155911907909684899e+00
8.028514559173914877e-01 8.995187035564301478e-03 1.916567314741501216e+00 9.697745975729693768e+00
8.203047484373349185e-01 9.113881061830909208e-03 1.978102771139436999e+00 1.025523024643845282e+01
8.377580409572781273e-01 9.231508501024178123e-03 2.040521687447670818e+00 1.082801371070054053e+01
8.552113334772214470e-01 9.348123460440163277e-03 2.103799742551492269e+00 1.141571859247510723e+01
8.726646259971647668e-01 9.463778197055454366e-03 2.167913449655674452e+00 1.201792265549667782e+01
8.901179185171079755e-01 9.578523157937557375e-03 2.232840088969993086e+00 1.263417600116310879e+01
9.075712110370514063e-01 9.692406983638027565e-03 2.298556471351786090e+00 1.326376375823446274e+01
9.250245035569946150e-01 9.805476656516997486e-03 2.365037853799798029e+00 1.390567267588988010e+01
9.424777960769379348e-01 9.917777703496589992e-03 2.432258213891760334e+00 1.455883781779414576e+01
9.599310885968812546e-01 1.002935421067437452e-02 2.500192611216715655e+00 1.522265596364982798e+01
9.773843811168245743e-01 1.014024882541239049e-02 2.568818091417561345e+00 1.589674805116702849e+01
9.948376736367677831e-01 1.025050298543471287e-02 2.638111429963124976e+00 1.658019510559463683e+01
1.012290966156711214e+00 1.036015735157160868e-02 2.708047707722135655e+00 1.727161291830971024e+01
1.029744258676654312e+00 1.046925185581805938e-02 2.778601203945390896e+00 1.796974383839054212e+01
1.047197551196597631e+00 1.057782570133375399e-02 2.849746361908637837e+00 1.867352621712854699e+01
1.064650843716540951e+00 1.068591725127751232e-02 2.921459251100574139e+00 1.938229988023499928e+01
1.082104136236484271e+00 1.079356346976131746e-02 2.993718771489680908e+00 2.009589242006260079e+01
1.099557428756427591e+00 1.090079974649740650e-02 3.066501759983144559e+00 2.081284142877442633e+01
1.117010721276370910e+00 1.100765989673627675e-02 3.139777052868249374e+00 2.152982965385743341e+01
1.134464013796314230e+00 1.111417616162487312e-02 3.213521198493154873e+00 2.224809285964480310e+01
1.151917306316257550e+00 1.122037922150407284e-02 3.287712191087765135e+00 2.296719426913361062e+01
1.169370598836200648e+00 1.132629821282834723e-02 3.362326052706516410e+00 2.368566086941847004e+01
1.186823891356144189e+00 1.143196072926158484e-02 3.437338779683181578e+00 2.440261353888870133e+01
1.204277183876087287e+00 1.153739282167709143e-02 3.512725896304728312e+00 2.511704650237060577e+01
1.221730476396030607e+00 1.164261928343806804e-02 3.588462752282272294e+00 2.582799821472043078e+01
1.239183768915973927e+00 1.174766594450620504e-02 3.664524594266014290e+00 2.653396955223574238e+01
1.256637061435917246e+00 1.185256077711565638e-02 3.740886669018968824e+00 2.723316872295732338e+01
1.274090353955860566e+00 1.195733390288082794e-02 3.817524296102843717e+00 2.792376396635246039e+01
1.291543646475803886e+00 1.206201759256930565e-02 3.894412926516848561e+00 2.860389016450925936e+01
1.308996938995747206e+00 1.216664568599577605e-02 3.971528184090082458e+00 2.927181494430107733e+01
1.326450231515690303e+00 1.227125175794690180e-02 4.048845897599866461e+00 2.992632275707225986e+01
1.343903524035633845e+00 1.237586875659044995e-02 4.126342101781346194e+00 3.056633761132993854e+01
1.361356816555576943e+00 1.248052900347529533e-02 4.203993104950182413e+00 3.119085723860641224e+01
1.378810109075520263e+00 1.258526420113745097e-02 4.281775272231738150e+00 3.179883820538200112e+01
1.396263401595463582e+00 1.269010583009244630e-02 4.359665557924718549e+00 3.238938570654687510e+01
1.413716694115406902e+00 1.279508573226634943e-02 4.437635465585191064e+00 3.295888263539730190e+01
1.431169986635350000e+00 1.290023615763093157e-02 4.515659377010599940e+00 3.350717850523007257e+01
1.448623279155293542e+00 1.300558976420366532e-02 4.593714249397549132e+00 3.403412480912937355e+01
1.466076571675236861e+00 1.311117961945745466e-02 4.671777163157273982e+00 3.453859624256944727e+01
1.483529864195180181e+00 1.321703921704872088e-02 4.749825077829275877e+00 3.501939841229302885e+01
1.500983156715123279e+00 1.332320248777341815e-02 4.827835582213404919e+00 3.547572397508067610e+01
1.518436449235066599e+00 1.342970379975713321e-02 4.905777463283830464e+00 3.590242378044217020e+01
1.535889741755009918e+00 1.353657795846940730e-02 4.983627467461813509e+00 3.630207936494010568e+01
1.553343034274953460e+00 1.364386027514802487e-02 5.061362719477497940e+00 3.667391968426698412e+01
1.570796326794896558e+00 1.375158679346160338e-02 5.138960410556948410e+00 3.701701945357131507e+01
1.588249619314839878e+00 1.385979433638082764e-02 5.216397785163889189e+00 3.733049827127981501e+01
1.605702911834782975e+00 1.396852050617845148e-02 5.293648623166640199e+00 3.761180891342933563e+01
1.623156204354726295e+00 1.407780369655107014e-02 5.370684672905052359e+00 3.785910076202389263e+01
1.640609496874669837e+00 1.418768326463448921e-02 5.447482898652297401e+00 3.807414141702367516e+01
1.658062789394613157e+00 1.429819965879082846e-02 5.524021879474892316e+00 3.825703941250733209e+01
1.675516081914556255e+00 1.440939442163895710e-02 5.600291395305636577e+00 3.841291642614721979e+01
1.692969374434499574e+00 1.452131019311318771e-02 5.676294468429918361e+00 3.854825980968752930e+01
1.710422666954442894e+00 1.463399086752072663e-02 5.752037120649941215e+00 3.866453138275652890e+01
1.727875959474386436e+00 1.474748182287262573e-02 5.827524980825298684e+00 3.876144927645882632e+01
1.745329251994329534e+00 1.486182993904969218e-02 5.902761983970488124e+00 3.883807943679605046e+01
1.762782544514272853e+00 1.497708360053162657e-02 5.977753736023802666e+00 3.889526981127082195e+01
1.780235837034215951e+00 1.509329287520835144e-02 6.052505897614923747e+00 3.893302837904556668e+01
1.797689129554159271e+00 1.521050980056456135e-02 6.127024115765533629e+00 3.895127928711507082e+01
1.815142422074102813e+00 1.532878840938387867e-02 6.201313988039673930e+00 3.894996979606575138e+01
1.832595714594046132e+00 1.544818474491683850e-02 6.275381084228860651e+00 3.892910551354936644e+01
1.850049007113989230e+00 1.556875716525814995e-02 6.349230948201337377e+00 3.888864804465190161e+01
1.867502299633932550e+00 1.569056662488660381e-02 6.422869105536892498e+00 3.882853164129110013e+01
1.884955592153875870e+00 1.581367668525687775e-02 6.496301069353854984e+00 3.874875405260388561e+01
1.902408884673818967e+00 1.593815363689451287e-02 6.569532346468349715e+00 3.864934330793897033e+01
1.919862177193762509e+00 1.606406700232338933e-02 6.642568443274540435e+00 3.853024420499612290e+01
1.937315469713705829e+00 1.619148966554215599e-02 6.715414871615221770e+00 3.839144276738204553e+01
1.954768762233649149e+00 1.632049792562387247e-02 6.788077154193065788e+00 3.823299221505311607e+01
1.972222054753592246e+00 1.645117204541827333e-02 6.860560830997200377e+00 3.805487075417159559e+01
1.989675347273535566e+00 1.658359657315813460e-02 6.932871461686608505e+00 3.785705838936216594e+01
2.007128639793478886e+00 1.671786040088444475e-02 7.005014640565026873e+00 3.763962586337002136e+01
2.024581932313422428e+00 1.685405741198997207e-02 7.076995973473588109e+00 3.740255377296401917e+01
2.042035224833365525e+00 1.699228690658462562e-02 7.148821152424779335e+00 3.714586095164904833e+01
2.059488517353308623e+00 1.713265375066468782e-02 7.220495684290012761e+00 3.686950799515329891e+01
2.076941809873252165e+00 1.727526926604107740e-02 7.292023756529314227e+00 3.657276704089103703e+01
2.094395102393195263e+00 1.742025158001240387e-02 7.363410930322410231e+00 3.625635992379546479e+01
2.111848394913138804e+00 1.756772616493710096e-02 7.434662974075918918e+00 3.592042193520596527e+01
2.129301687433081902e+00 1.771782684702060198e-02 7.505785643684530051e+00 3.556489584716688768e+01
2.146754979953025444e+00 1.787069614138677917e-02 7.576784710484582241e+00 3.518984280131117970e+01
2.164208272472968542e+00 1.802648654238155415e-02 7.647666268298553227e+00 3.479537219732399222e+01
2.181661564992911639e+00 1.818536111314991016e-02 7.718436036168128567e+00 3.438133138324674576e+01
2.199114857512855181e+00 1.834749489121440327e-02 7.789097832351367323e+00 3.394675989490521317e+01
2.216568150032798723e+00 1.851307587686695441e-02 7.859657116165765345e+00 3.349247952340855505e+01
2.234021442552741821e+00 1.868230652064094971e-02 7.930119894104581846e+00 3.301874085362003086e+01
2.251474735072684918e+00 1.885540503553310640e-02 8.000492695129810983e+00 3.252581808046987533e+01
2.268928027592628460e+00 1.903260801945535693e-02 8.070781363819181209e+00 3.201325760940487442e+01
2.286381320112572002e+00 1.921417165612565245e-02 8.140989294733165238e+00 3.147998269135953819e+01
2.303834612632515100e+00 1.940037218668224858e-02 8.211122057792515250e+00 3.092733817724176504e+01
2.321287905152458197e+00 1.959151524378736214e-02 8.281186882792514581e+00 3.035526994925410449e+01
2.338741197672401295e+00 1.978791969781188223e-02 8.351189588953941367e+00 2.976540800958252575e+01
2.356194490192344837e+00 1.998982370277040815e-02 8.421133368775038264e+00 2.917257130737378290e+01
2.373647782712288379e+00 2.019741843656469582e-02 8.491024460505483873e+00 2.858680269041398958e+01
2.391101075232231477e+00 2.041083344647770179e-02 8.560869371028562824e+00 2.801738994192571042e+01
2.408554367752174574e+00 2.063006532898883569e-02 8.630672994970082001e+00 2.748013861863902108e+01
2.426007660272118116e+00 2.085501934502455648e-02 8.700440649213689426e+00 2.698370741178429455e+01
2.443460952792061214e+00 2.108561744030586216e-02 8.770177982951159024e+00 2.652271815983485226e+01
2.460914245312004311e+00 2.132179033828798462e-02 8.839890716011524319e+00 2.609329635336711561e+01
2.478367537831947853e+00 2.156346934344938876e-02 8.909584438170032428e+00 2.569284419086782378e+01
2.495820830351891395e+00 2.181057510304965433e-02 8.979264244367248793e+00 2.532006511516479108e+01
2.513274122871834493e+00 2.206296959149492073e-02 9.048935258802554671e+00 2.497869517372263815e+01
2.530727415391777591e+00 2.232057433656569126e-02 9.118604021033217322e+00 2.466110844512496669e+01
2.548180707911721132e+00 2.258332136051401789e-02 9.188276489186606000e+00 2.436449674890681649e+01
2.565634000431664674e+00 2.285114042946491744e-02 9.257956878865018169e+00 2.408708407030979970e+01
2.583087292951607772e+00 2.312395275759226987e-02 9.327650184985124326e+00 2.382864382213607968e+01
2.600540585471550870e+00 2.340164243656287987e-02 9.397362376608585421e+00 2.359146833190619219e+01
2.617993877991494411e+00 2.368411902047721021e-02 9.467099256628801029e+00 2.337205993680633398e+01
2.635447170511437509e+00 2.397130946584218741e-02 9.536866441255233084e+00 2.316791287812889877e+01
2.652900463031380607e+00 2.426314753327114132e-02 9.606669488343447583e+00 2.297763306080679868e+01
2.670353755551324149e+00 2.455954990398324933e-02 9.676513891181398819e+00 2.280178571645603824e+01
2.687807048071267690e+00 2.486039310782038603e-02 9.746405076159172509e+00 2.264261885785935391e+01
2.705260340591210788e+00 2.516560128506772909e-02 9.816348467789271837e+00 2.249575065296135179e+01
2.722713633111153886e+00 2.547511407152116061e-02 9.886349518572194128e+00 2.235949159442567336e+01
2.740166925631096984e+00 2.578884139054582122e-02 9.956413646321209399e+00 2.223546995545715177e+01
2.757620218151040525e+00 2.610667247849808581e-02 1.002654622343508350e+01 2.212456719484014300e+01
2.775073510670984067e+00 2.642854331425304598e-02 1.009675290922991664e+01 2.202310617498840983e+01
2.792526803190927165e+00 2.675438725991152733e-02 1.016703987145068311e+01 2.193106107580328157e+01
2.809980095710870263e+00 2.708407613966992353e-02 1.023741304756774895e+01 2.185209497838024362e+01
2.827433388230813804e+00 2.741753316246856378e-02 1.030787718819844123e+01 2.178198862621436405e+01
2.844886680750756902e+00 2.775470101497413619e-02 1.037843642397204214e+01 2.171899062020645843e+01
2.862339973270700000e+00 2.809547852734867873e-02 1.044909648321093165e+01 2.166615312588645281e+01
2.879793265790643542e+00 2.843976882806498879e-02 1.051986503814755025e+01 2.162348591665383069e+01
2.897246558310587083e+00 2.878749089533642197e-02 1.059074832101968511e+01 2.158928292809208926e+01
2.914699850830530625e+00 2.913856439641107632e-02 1.066174766874324575e+01 2.156178486148411722e+01
2.932153143350473723e+00 2.949290700079338495e-02 1.073285952469612425e+01 2.153942402193333194e+01
2.949606435870416821e+00 2.985043361815332974e-02 1.080407704720586004e+01 2.152118368103699453e+01
2.967059728390360362e+00 3.021105714442606088e-02 1.087539104953358304e+01 2.150629690295830088e+01
2.984513020910303460e+00 3.057468939888336942e-02 1.094679002034512294e+01 2.149395526832880776e+01
3.001966313430246558e+00 3.094124601560746882e-02 1.101826095954541707e+01 2.148332408156640483e+01
3.019419605950190100e+00 3.131064955345506245e-02 1.108979089826631359e+01 2.147386210761788661e+01
3.036872898470133197e+00 3.168282179470084670e-02 1.116136705989778299e+01 2.146553998850759726e+01
3.054326190990076295e+00 3.205767507858312687e-02 1.123297686008790919e+01 2.145882837573921620e+01
3.071779483510019837e+00 3.243511444251193088e-02 1.130460790674290017e+01 2.145406583869238659e+01
3.089232776029963379e+00 3.281504753346645847e-02 1.137624800002707559e+01 2.145102617669613565e+01
3.106686068549906921e+00 3.319738697068500693e-02 1.144788513236287741e+01 2.144936102218949614e+01
3.124139361069850018e+00 3.358204912862240710e-02 1.151950736392381636e+01 2.144876502307706900e+01
3.141592653589793116e+00 3.396895085054445901e-02 1.159110242578413441e+01 2.144900495869278956e+01
3.159045946109736214e+00 3.435800889931861501e-02 1.166265800012306819e+01 2.144996599213949295e+01
3.176499238629679756e+00 3.474913995362987479e-02 1.173416182140269370e+01 2.145156720478794909e+01
3.193952531149622853e+00 3.514226046851433305e-02 1.180560167636790858e+01 2.145373847469431183e+01
3.211405823669565951e+00 3.553728649848737070e-02 1.187696540404645518e+01 2.145642211982146463e+01
3.228859116189509493e+00 3.593413368614584852e-02 1.194824089574889747e+01 2.145956356270369270e+01
3.246312408709452590e+00 3.633271726216811409e-02 1.201941609506863706e+01 2.146311056794780825e+01
3.263765701229396576e+00 3.673295204531399488e-02 1.209047899788190605e+01 2.146701311762733511e+01
3.281218993749339674e+00 3.713475244242481210e-02 1.216141764181052665e+01 2.147122008746326927e+01
3.298672286269282772e+00 3.753803244842335990e-02 1.223222001015278693e+01 2.147565299345719225e+01
3.316125578789226314e+00 3.794270564631391923e-02 1.230287398050877634e+01 2.148021905190301339e+01
3.333578871309169411e+00 3.834868441627155983e-02 1.237336732522279625e+01 2.148486848760912338e+01
3.351032163829112509e+00 3.875587827065243851e-02 1.244368779149571580e+01 2.148966440034020664e+01
3.368485456349056051e+00 3.916419905769546322e-02 1.251382324214652897e+01 2.149443918367270356e+01
3.385938748868999149e+00 3.957356246017539741e-02 1.258376166300190846e+01 2.149895212418091717e+01
3.403392041388942246e+00 3.998388799540285310e-02 1.265349106811929403e+01 2.150293679258895096e+01
3.420845333908885788e+00 4.039509897440501235e-02 1.272299942859780053e+01 2.150610941363385464e+01
3.438298626428828886e+00 4.080711604901426232e-02 1.279227455572903516e+01 2.150848837966795557e+01
