# angles(rad), pulling distance(m),                                     elastic band force(n), cable force(n)
0.000000000000000000e+00 3.027325384956219010e-04 2.325540492331637857e-02 1.786441129965383318e-02
1.745329251994329547e-02 5.973735602624385488e-04 4.694020668138144947e-02 3.773301772660130060e-02
3.490658503988659095e-02 8.844028659148428203e-04 7.107850681902815049e-02 5.977488351002107486e-02
5.235987755982988295e-02 1.164296016718277581e-03 9.569558057615148994e-02 8.416587395981936504e-02
6.981317007977318190e-02 1.437459099761479982e-03 1.208186322344465824e-01 1.111179704480967090e-01
8.726646259971647390e-02 1.704165052530413286e-03 1.464768696182039420e-01 1.409169256581864205e-01
1.047197551196597659e-01 1.964571349525196572e-03 1.727017643046253048e-01 1.739238118784315057e-01
1.221730476396030718e-01 2.218809670297890949e-03 1.995272703260592695e-01 2.105276645670342284e-01
1.396263401595463638e-01 2.467010135514721789e-03 2.269896628798987182e-01 2.511550178693519597e-01
1.570796326794896558e-01 2.709317329833490096e-03 2.551212505582038381e-01 2.961928492818612368e-01
1.745329251994329478e-01 2.945878582228159213e-03 2.839394926824573839e-01 3.458992952535277499e-01
1.919862177193762398e-01 3.176843078956123265e-03 3.134516027742265121e-01 4.005212203852295261e-01
2.094395102393195318e-01 3.402355624619881128e-03 3.436739247617996984e-01 4.605785448571319551e-01
2.268928027592628516e-01 3.622545518921249739e-03 3.746198498980153890e-01 5.264981785956684979e-01
2.443460952792061436e-01 3.837547843089239227e-03 4.062971021473028577e-01 5.986156588157849345e-01
2.617993877991494078e-01 4.047512020702436798e-03 4.387218217857251634e-01 6.775170999343773648e-01
2.792526803190927276e-01 4.252586692438172812e-03 4.719083948570395037e-01 7.636741434881326729e-01
2.967059728390360474e-01 4.452908044358769475e-03 5.058633493955035920e-01 8.574506345288611664e-01
3.141592653589793116e-01 4.648609946381122501e-03 5.406023083509203797e-01 9.596207909548675197e-01
3.316125578789225758e-01 4.839841220896923257e-03 5.761405392562561900e-01 1.070693879432451867e+00
3.490658503988658956e-01 5.026750160629422925e-03 6.124871320180100831e-01 1.191051663507046721e+00
3.665191429188092154e-01 5.209464460841653488e-03 6.496532397536608494e-01 1.321466479167397567e+00
3.839724354387524796e-01 5.388125487300180795e-03 6.876533389372559979e-01 1.462596269680106920e+00
4.014257279586957439e-01 5.562884297126202693e-03 7.265012047037940901e-01 1.614969872343378743e+00
4.188790204786390636e-01 5.733888260044081239e-03 7.662105205424404319e-01 1.779239208258860394e+00
4.363323129985823834e-01 5.901312271247685474e-03 8.067904392206528552e-01 1.955483576015807134e+00
4.537856055185257032e-01 6.065356294797455590e-03 8.482528521611638617e-01 2.143973871965043632e+00
4.712388980384689674e-01 6.226204688265231206e-03 8.906109123212081480e-01 2.345348299101994716e+00
4.886921905584122872e-01 6.384024812738493121e-03 9.338775065707377587e-01 2.560237440593586378e+00
5.061454830783556069e-01 6.538974500586172689e-03 9.780653892442866537e-01 2.789204629406598190e+00
5.235987755982988157e-01 6.691202330143392052e-03 1.023187327544499592e+00 3.032835428141530176e+00
5.410520681182421354e-01 6.840847233588156356e-03 1.069256152183984732e+00 3.291750873950532341e+00
5.585053606381854552e-01 6.988039303295819592e-03 1.116285314562119435e+00 3.566629875042501840e+00
5.759586531581287749e-01 7.132901078837559396e-03 1.164287521464460129e+00 3.858048149012722750e+00
5.934119456780720947e-01 7.275547920171112314e-03 1.213270505808410782e+00 4.166205829403912375e+00
6.108652381980153034e-01 7.416088805333547612e-03 1.263248336599081645e+00 4.492245195423045345e+00
6.283185307179586232e-01 7.554626543848836674e-03 1.314234955155868079e+00 4.836833419590737648e+00
6.457718232379019430e-01 7.691258466878737356e-03 1.366243366611047394e+00 5.200552373332766543e+00
6.632251157578451517e-01 7.826076855358325354e-03 1.419291265820797454e+00 5.584580921610688087e+00
6.806784082777884715e-01 7.959169152171615899e-03 1.473383198296032370e+00 5.988186122009756751e+00
6.981317007977317912e-01 8.090618592382938651e-03 1.528505315966649070e+00 6.409646914541907492e+00
7.155849933176750000e-01 8.220504327422674049e-03 1.584637366795146551e+00 6.848245897863240117e+00
7.330382858376184307e-01 8.348901710701513851e-03 1.641755540606345765e+00 7.303425967817718245e+00
7.504915783575616395e-01 8.475882771066345009e-03 1.699832469087390274e+00 7.774470338592915475e+00
7.679448708775049592e-01 8.601516261360325766e-03 1.758838298657863675e+00 8.260672584179587830e+00
7.853981633974482790e-01 8.725867904716379936e-03 1.818744595768727601e+00 8.761786429386548392e+00
8.028514559173914877e-01 8.849000779504762049e-03 1.879523875046295700e+00 9.277466046872005379e+00
8.203047484373349185e-01 8.970975353145617739e-03 1.941149213110700211e+00 9.807287938847249364e+00
8.377580409572781273e-01 9.091849622048783081e-03 2.003594248575891079e+00 1.035079798583142718e+01
8.552113334772214470e-01 9.211679469609192206e-03 2.066833182049635731e+00 1.090749331338957795e+01
8.726646259971647668e-01 9.330518722639624674e-03 2.130840717657252359e+00 1.147683611530946379e+01
8.901179185171079755e-01 9.448419186787130469e-03 2.195590909256703416e+00 1.205804685132709864e+01
9.075712110370514063e-01 9.565430931869072992e-03 2.261056103815286544e+00 1.265005300454940596e+01
9.250245035569946150e-01 9.681602429611831442e-03 2.327207392619976112e+00 1.325176754443700844e+01
9.424777960769379348e-01 9.796980555062416440e-03 2.394017946253883089e+00 1.386273730606176002e+01
9.599310885968812546e-01 9.911610694921586806e-03 2.461463799947740227e+00 1.448271174823301521e+01
9.773843811168245743e-01 1.002553698826231209e-02 2.529518027108922595e+00 1.511015494117206970e+01
9.948376736367677831e-01 1.013880235894813221e-02 2.598149396499543684e+00 1.574307750758120505e+01
1.012290966156711214e+00 1.025144852046659498e-02 2.667332220647962604e+00 1.638170120304133093e+01
1.029744258676654312e+00 1.036351611913203900e-02 2.737042847116555766e+00 1.702552511305940897e+01
1.047197551196597631e+00 1.047504489773134866e-02 2.807250530405590361e+00 1.767172192029287459e+01
1.064650843716540951e+00 1.058607370446882148e-02 2.877929397695278002e+00 1.832036171025015392e+01
1.082104136236484271e+00 1.069664049999893840e-02 2.949056635076125588e+00 1.897117939675541010e+01
1.099557428756427591e+00 1.080678249475422632e-02 3.020604390150872565e+00 1.962171318618166183e+01
1.117010721276370910e+00 1.091653627393508567e-02 3.092540923057438107e+00 2.026961381528636252e+01
1.134464013796314230e+00 1.102593780206809378e-02 3.164840122529215094e+00 2.091519297946501510e+01
1.151917306316257550e+00 1.113502242775647397e-02 3.237476448420624653e+00 2.155742781251468898e+01
1.169370598836200648e+00 1.124382499763812784e-02 3.310423325224219671e+00 2.219479215753337442e+01
1.186823891356144189e+00 1.135237997301610097e-02 3.383654127758327412e+00 2.282601109813947104e+01
1.204277183876087287e+00 1.146072143514362263e-02 3.457142011541478599e+00 2.344975278873161173e+01
1.221730476396030607e+00 1.156888308678463012e-02 3.530860101232222714e+00 2.406474546931056935e+01
1.239183768915973927e+00 1.167689833597092622e-02 3.604781547198967928e+00 2.466972639239122245e+01
1.256637061435917246e+00 1.178480042044550112e-02 3.678879599410938894e+00 2.526344268195719067e+01
1.274090353955860566e+00 1.189262241776228336e-02 3.753127636750492435e+00 2.584466693701167372e+01
1.291543646475803886e+00 1.200039724540786709e-02 3.827499254705744924e+00 2.641222616760600062e+01
1.308996938995747206e+00 1.210815771397903869e-02 3.901968106528117097e+00 2.696490546055382964e+01
1.326450231515690303e+00 1.221593666339793050e-02 3.976508337213375377e+00 2.750164576439874153e+01
1.343903524035633845e+00 1.232376698441458272e-02 4.051089451301046473e+00 2.801946258698277603e+01
1.361356816555576943e+00 1.243168161860695384e-02 4.125683338073692141e+00 2.851798165126129092e+01
1.378810109075520263e+00 1.253971358813403894e-02 4.200264111386156074e+00 2.899687443587958313e+01
1.396263401595463582e+00 1.264789613758097488e-02 4.274805997192707707e+00 2.945503707547630867e+01
1.413716694115406902e+00 1.275626277618286883e-02 4.349283404784525686e+00 2.989142756937041057e+01
1.431169986635350000e+00 1.286484727783190375e-02 4.423670896818790332e+00 3.030504156688196815e+01
1.448623279155293542e+00 1.297368369814337619e-02 4.497941104897218878e+00 3.069404716079392870e+01
1.466076571675236861e+00 1.308280651561285340e-02 4.572061830172753361e+00 3.105533257989603868e+01
1.483529864195180181e+00 1.319225070128298739e-02 4.646007990203023574e+00 3.139083618210144166e+01
1.500983156715123279e+00 1.330205171923513376e-02 4.719754017473042573e+00 3.169944277129012278e+01
1.518436449235066599e+00 1.341224553912363608e-02 4.793274488243935316e+00 3.198035944904847838e+01
1.535889741755009918e+00 1.352286878248098838e-02 4.866543894018609429e+00 3.223271786917987924e+01
1.553343034274953460e+00 1.363395881739116675e-02 4.939534637928729488e+00 3.245478391322311040e+01
1.570796326794896558e+00 1.374555376008028233e-02 5.012214741405288443e+00 3.264379883835017893e+01
1.588249619314839878e+00 1.385769249039703159e-02 5.084561086906772331e+00 3.280306563822497168e+01
1.605702911834782975e+00 1.397041482303143685e-02 5.156567808132055397e+00 3.294001569712935407e+01
1.623156204354726295e+00 1.408376161396459117e-02 5.228241333335927443e+00 3.306017611012656232e+01
1.640609496874669837e+00 1.419777476207089925e-02 5.299590537421567049e+00 3.316473346321831173e+01
1.658062789394613157e+00 1.431249724379371480e-02 5.370623952782327848e+00 3.325361831922165123e+01
1.675516081914556255e+00 1.442797333740114540e-02 5.441350124477572159e+00 3.332688620954298386e+01
1.692969374434499574e+00 1.454424871220734612e-02 5.511777538580900249e+00 3.338456141741536953e+01
1.710422666954442894e+00 1.466137042917256897e-02 5.581914655380721513e+00 3.342671285013013716e+01
1.727875959474386436e+00 1.477938705219288516e-02 5.651769683034936875e+00 3.345329813713584599e+01
1.745329251994329534e+00 1.489834891467140682e-02 5.721350665767391597e+00 3.346427111907001262e+01
1.762782544514272853e+00 1.501830815859975417e-02 5.790666172637242148e+00 3.345994420489998333e+01
1.780235837034215951e+00 1.513931876274409415e-02 5.859724740664024267e+00 3.344039164854359569e+01
1.797689129554159271e+00 1.526143683845231601e-02 5.928534902480083524e+00 3.340565625571379371e+01
1.815142422074102813e+00 1.538472080638513678e-02 5.997105181197315282e+00 3.335577047579574383e+01
1.832595714594046132e+00 1.550923140602965440e-02 6.065444099859623961e+00 3.329081155937853964e+01
1.850049007113989230e+00 1.563503195286774367e-02 6.133560179040972393e+00 3.321083105917125522e+01
1.867502299633932550e+00 1.576218866106604902e-02 6.201461956102587436e+00 3.311585312059686004e+01
1.884955592153875870e+00 1.589077066839284305e-02 6.269157959304677341e+00 3.300593497571455259e+01
1.902408884673818967e+00 1.602085030669717081e-02 6.336656126577287829e+00 3.288083213916054603e+01
1.919862177193762509e+00 1.615250352285640262e-02 6.403964869999239085e+00 3.274077465731128456e+01
1.937315469713705829e+00 1.628580992850355361e-02 6.471092677848854890e+00 3.258585090093030345e+01
1.954768762233649149e+00 1.642085319323988157e-02 6.538048050691311452e+00 3.241608870687850441e+01
1.972222054753592246e+00 1.655772149322251932e-02 6.604839520295831434e+00 3.223149101132508321e+01
1.989675347273535566e+00 1.669650761281364290e-02 6.671475642596543132e+00 3.203211302081252398e+01
2.007128639793478886e+00 1.683730959267865090e-02 6.737965003885035387e+00 3.181794673072397117e+01
2.024581932313422428e+00 1.698023105722154188e-02 6.804316215744562690e+00 3.158900087079646468e+01
2.042035224833365525e+00 1.712538161701644343e-02 6.870537931577566759e+00 3.134530181404001681e+01
2.059488517353308623e+00 1.727287762966673787e-02 6.936638811823534034e+00 3.108680181728024650e+01
2.076941809873252165e+00 1.742284248327117396e-02 7.002627125931408791e+00 3.081332373951721593e+01
2.094395102393195263e+00 1.757540757566898246e-02 7.068510410126823906e+00 3.052445830625244128e+01
2.111848394913138804e+00 1.773071274616573600e-02 7.134297247799324282e+00 3.022068444000385767e+01
2.129301687433081902e+00 1.788890734536942653e-02 7.199996484555683196e+00 2.990204950516007187e+01
2.146754979953025444e+00 1.805015090995227417e-02 7.265616840106215335e+00 2.956845822499319354e+01
2.164208272472968542e+00 1.821461443193312865e-02 7.331167213893023948e+00 2.921989906188612807e+01
2.181661564992911639e+00 1.838248125955714921e-02 7.396656093714224944e+00 2.885613130695141137e+01
2.199114857512855181e+00 1.855394856636581255e-02 7.462090630502679289e+00 2.847647478508917729e+01
2.216568150032798723e+00 1.872922867835609753e-02 7.527479475321880109e+00 2.808151944350791851e+01
2.234021442552741821e+00 1.890855119204479934e-02 7.592831753950451734e+00 2.767130831243202138e+01
2.251474735072684918e+00 1.909216379131054020e-02 7.658156336352788252e+00 2.724572641771820969e+01
2.268928027592628460e+00 1.928033497655621750e-02 7.723461634216009841e+00 2.680447391023806958e+01
2.286381320112572002e+00 1.947336107406574812e-02 7.788754990215525531e+00 2.634638315391705632e+01
2.303834612632515100e+00 1.967155070205250239e-02 7.854045006948129348e+00 2.587374198797809655e+01
2.321287905152458197e+00 1.987526824576961448e-02 7.919341342082332424e+00 2.538337920630049638e+01
2.338741197672401295e+00 2.008486915541555368e-02 7.984652682718889949e+00 2.488006240557662707e+01
2.356194490192344837e+00 2.030032095459366817e-02 8.049985705359146593e+00 2.441055959375767870e+01
2.373647782712288379e+00 2.052153421939275149e-02 8.115349196749086502e+00 2.397901219123794547e+01
2.391101075232231477e+00 2.074842650387493173e-02 8.180752786817633293e+00 2.358170102355979481e+01
2.408554367752174574e+00 2.098090985691065252e-02 8.246204909580338693e+00 2.321592531338584564e+01
2.426007660272118116e+00 2.121889739960875279e-02 8.311712720794497855e+00 2.287859698903818284e+01
2.443460952792061214e+00 2.146230101877269134e-02 8.377285438141454321e+00 2.256833205918953666e+01
2.460914245312004311e+00 2.171103303094847406e-02 8.442932202524652041e+00 2.228306586490918662e+01
2.478367537831947853e+00 2.196500460801251858e-02 8.508660294515527411e+00 2.202049587682817133e+01
2.495820830351891395e+00 2.222411501455008598e-02 8.574478549238971681e+00 2.178056917187934971e+01
2.513274122871834493e+00 2.248824944219150399e-02 8.640395871586797227e+00 2.156295053870860556e+01
2.530727415391777591e+00 2.275731852891064652e-02 8.706420418211690659e+00 2.136393548019050570e+01
2.548180707911721132e+00 2.303123691835930881e-02 8.772560605022988511e+00 2.118217759667403044e+01
2.565634000431664674e+00 2.330991792089742720e-02 8.838824963287473579e+00 2.101682779486377939e+01
2.583087292951607772e+00 2.359327454587187289e-02 8.905222026318384110e+00 2.086701125265865997e+01
2.600540585471550870e+00 2.388122484414603036e-02 8.971760342301973168e+00 2.073155777795903631e+01
2.617993877991494411e+00 2.417368033308375103e-02 9.038448224632267269e+00 2.061014391769891674e+01
2.635447170511437509e+00 2.447051528354930380e-02 9.105293862037569852e+00 2.050463299607724821e+01
2.652900463031380607e+00 2.477163808622155627e-02 9.172305053194993008e+00 2.041184134244540971e+01
2.670353755551324149e+00 2.507696655123165669e-02 9.239479724670973226e+00 2.032758442922201425e+01
2.687807048071267690e+00 2.538642478397136470e-02 9.306803665243363000e+00 2.024734295580241294e+01
2.705260340591210788e+00 2.569992652146656231e-02 9.374264812306771333e+00 2.017209416978247560e+01
2.722713633111153886e+00 2.601735035317377653e-02 9.441853683570036182e+00 2.010448395361961360e+01
2.740166925631096984e+00 2.633860055614098070e-02 9.509559218711684636e+00 2.004200432924832498e+01
2.757620218151040525e+00 2.666361251318825204e-02 9.577369771280972444e+00 1.998224133817030079e+01
2.775073510670984067e+00 2.699230136173574532e-02 9.645274478134098217e+00 1.992643008273491745e+01
2.792526803190927165e+00 2.732453449119497113e-02 9.713262451236467143e+00 1.987715756540698564e+01
2.809980095710870263e+00 2.766023951425684510e-02 9.781321816360962984e+00 1.983022317712562099e+01
2.827433388230813804e+00 2.799934000148911542e-02 9.849440207710543405e+00 1.978552222437695818e+01
2.844886680750756902e+00 2.834171516067163915e-02 9.917606038991891637e+00 1.974564572917522653e+01
2.862339973270700000e+00 2.868728461023577203e-02 9.985808655148762369e+00 1.970828947935355657e+01
2.879793265790643542e+00 2.903597478615021696e-02 1.005403763531922401e+01 1.967295845528996523e+01
2.897246558310587083e+00 2.938768063090524060e-02 1.012228208370493832e+01 1.964111678861076982e+01
2.914699850830530625e+00 2.974229992841431400e-02 1.019053059777899861e+01 1.961225956426908468e+01
2.932153143350473723e+00 3.009974203107319488e-02 1.025877137714425658e+01 1.958545310971453191e+01
2.949606435870416821e+00 3.045991874609744673e-02 1.032699262313785304e+01 1.956040673172581634e+01
2.967059728390360362e+00 3.082274156244883823e-02 1.039518263050106306e+01 1.953701774447584327e+01
2.984513020910303460e+00 3.118811915680332059e-02 1.046332978737930652e+01 1.951532298385960118e+01
3.001966313430246558e+00 3.155595822912717063e-02 1.053142257532214288e+01 1.949531678696834902e+01
3.019419605950190100e+00 3.192616609948445427e-02 1.059944956928326754e+01 1.947686015278397775e+01
3.036872898470133197e+00 3.229865082089346251e-02 1.066739943762052079e+01 1.945981527900775276e+01
3.054326190990076295e+00 3.267331961982856275e-02 1.073526094209587711e+01 1.944413200503388950e+01
3.071779483510019837e+00 3.305007830701940652e-02 1.080302283611780112e+01 1.942976534915657538e+01
3.089232776029963379e+00 3.342883203055226071e-02 1.087067355541612734e+01 1.941654535885746569e+01
3.106686068549906921e+00 3.380948737096432094e-02 1.093820150710639538e+01 1.940428163048278876e+01
3.124139361069850018e+00 3.419195270209888365e-02 1.100559516739534516e+01 1.939279933658109201e+01
3.141592653589793116e+00 3.457613811398103226e-02 1.107284308158092401e+01 1.938193326218627277e+01
3.159045946109736214e+00 3.496195415000591389e-02 1.113993386405227781e+01 1.937158671056895187e+01
3.176499238629679756e+00 3.534931077598665178e-02 1.120685619814421408e+01 1.936171797019379071e+01
3.193952531149622853e+00 3.573811735000095163e-02 1.127359881522052731e+01 1.935228309098956956e+01
3.211405823669565951e+00 3.612828262239110161e-02 1.134015045213864781e+01 1.934322782917762495e+01
3.228859116189509493e+00 3.651971473576397925e-02 1.140649985105500797e+01 1.933449972552715934e+01
3.246312408709452590e+00 3.691232122499105150e-02 1.147263584671171621e+01 1.932607369844792800e+01
3.263765701229396576e+00 3.730600901720836082e-02 1.153854743015044626e+01 1.931794550754818474e+01
3.281218993749339674e+00 3.770068443181654599e-02 1.160422349690144550e+01 1.931003880068442058e+01
3.298672286269282772e+00 3.809625289939288367e-02 1.166965261076877880e+01 1.930222179084227108e+01
3.316125578789226314e+00 3.849261856720421343e-02 1.173482318593680240e+01 1.929443538199123154e+01
3.333578871309169411e+00 3.888968693757774431e-02 1.179972336990672588e+01 1.928645731163994270e+01
3.351032163829112509e+00 3.928736559776572351e-02 1.186434084707647862e+01 1.927797115031863129e+01
3.368485456349056051e+00 3.968556421994542949e-02 1.192866508311680462e+01 1.926933509343306028e+01
3.385938748868999149e+00 4.008419454664984699e-02 1.199268612317901983e+01 1.926055764730900677e+01
3.403392041388942246e+00 4.048316903887021201e-02 1.205639287297159612e+01 1.925119573146017160e+01
3.420845333908885788e+00 4.088239844676207907e-02 1.211977376080244362e+01 1.924111816624310123e+01
3.438298626428828886e+00 4.128179034376146250e-02 1.218281604503899374e+01 1.923004842319435070e+01
