# angles(rad), pulling distance(m),                                     elastic band force(n), cable force(n)
0.000000000000000000e+00 3.247469211524621393e-04 2.600697569274187243e-02 2.082738097354671497e-02
1.745329251994329547e-02 6.363830111709364856e-04 5.238031848061454332e-02 4.432875841001903544e-02
3.490658503988659095e-02 9.359827491767576564e-04 7.914186150562622923e-02 7.069293003591281543e-02
5.235987755982988295e-02 1.224019491887558481e-03 1.063136152833632636e-01 1.002902390338788335e-01
6.981317007977318190e-02 1.500858237025686284e-03 1.339177677029900759e-01 1.335321206403049799e-01
8.726646259971647390e-02 1.766896512605325162e-03 1.619767512859533742e-01 1.708364330377631912e-01
1.047197551196597659e-01 2.022812037106194120e-03 1.905142234073442242e-01 2.124448819515463438e-01
1.221730476396030718e-01 2.269419123356093953e-03 2.195558074773250878e-01 2.585590113352978503e-01
1.396263401595463638e-01 2.507439498742981138e-03 2.491289794092546306e-01 3.095337585835065131e-01
1.570796326794896558e-01 2.737519193377528290e-03 2.792627155121721882e-01 3.657527877892260970e-01
1.745329251994329478e-01 2.960236451799479109e-03 3.099877278472499276e-01 4.276443069259139307e-01
1.919862177193762398e-01 3.176111608184636025e-03 3.413382279837682831e-01 4.957089246486286460e-01
2.094395102393195318e-01 3.385614435885355919e-03 3.733517935932457177e-01 5.705088695360064355e-01
2.268928027592628516e-01 3.589170596116948806e-03 4.060630812742102025e-01 6.525396358954296261e-01
2.443460952792061436e-01 3.787166986794936359e-03 4.395003100479554781e-01 7.422192072736256696e-01
2.617993877991494078e-01 3.979956382138625202e-03 4.736820349190788981e-01 8.398423038328125534e-01
2.792526803190927276e-01 4.167861445237052223e-03 5.086182572830443283e-01 9.456477777560093889e-01
2.967059728390360474e-01 4.351178016426460703e-03 5.443201164494260169e-01 1.060091840733093260e+00
3.141592653589793116e-01 4.530178019371273838e-03 5.808013930723946450e-01 1.183708152798862212e+00
3.316125578789225758e-01 4.705112197153099411e-03 6.180755538121995851e-01 1.316966634780352807e+00
3.490658503988658956e-01 4.876212042834693686e-03 6.561554560266245062e-01 1.460336536448620715e+00
3.665191429188092154e-01 5.043692010990637013e-03 6.950539684627399240e-01 1.614316370710380255e+00
3.839724354387524796e-01 5.207751000125449177e-03 7.347841699117838576e-01 1.779428438887606490e+00
4.014257279586957439e-01 5.368574004487297775e-03 7.753595936464864335e-01 1.956221635319491448e+00
4.188790204786390636e-01 5.526333302784052631e-03 8.167937437547114765e-01 2.145239928903008408e+00
4.363323129985823834e-01 5.681189781513530657e-03 8.590987030902701438e-01 2.346956097520174644e+00
4.537856055185257032e-01 5.833293755795804225e-03 9.022854867889029684e-01 2.561853385898614555e+00
4.712388980384689674e-01 5.982786209154747695e-03 9.463664517494504436e-01 2.790558684540395351e+00
4.886921905584122872e-01 6.129799214368236715e-03 9.913557321335796368e-01 3.033771123078785159e+00
5.061454830783556069e-01 6.274457113127955565e-03 1.037267345474537805e+00 3.292085513818478582e+00
5.235987755982988157e-01 6.416876837659056011e-03 1.084114086396533727e+00 3.566023730386747470e+00
5.410520681182421354e-01 6.557168634124192763e-03 1.131908072010908706e+00 3.856134105740678386e+00
5.585053606381854552e-01 6.695436752499559982e-03 1.180661882410360519e+00 4.163054089202779195e+00
5.759586531581287749e-01 6.831779585462543526e-03 1.230388690029537546e+00 4.487460056116103324e+00
5.934119456780720947e-01 6.966290445421646597e-03 1.281101998708297440e+00 4.830013065801772143e+00
6.108652381980153034e-01 7.099057895483068537e-03 1.332815357176914572e+00 5.191359652255257195e+00
6.283185307179586232e-01 7.230165870261095161e-03 1.385542336004162101e+00 5.572160010741800562e+00
6.457718232379019430e-01 7.359694334077609285e-03 1.439294242322335382e+00 5.972803737346034758e+00
6.632251157578451517e-01 7.487719506205885688e-03 1.494074747046565177e+00 6.392974707890250130e+00
6.806784082777884715e-01 7.614313915292948362e-03 1.549879113443693779e+00 6.832057003274669249e+00
6.981317007977317912e-01 7.739546895785907182e-03 1.606694197132275237e+00 7.289171343898580346e+00
7.155849933176750000e-01 7.863484854295495902e-03 1.664498446082575356e+00 7.763165031260517601e+00
7.330382858376184307e-01 7.986191276206281928e-03 1.723261900616572140e+00 8.252609828414339432e+00
7.504915783575616395e-01 8.107726971943864797e-03 1.782949301863417269e+00 8.756243154511729188e+00
7.679448708775049592e-01 8.228150459994948429e-03 1.843530893611760035e+00 9.274273464398374855e+00
7.853981633974482790e-01 8.347518000008401218e-03 1.904979002887104755e+00 9.806464799681023692e+00
8.028514559173914877e-01 8.465883621539408918e-03 1.967266407982282139e+00 1.035232342796655303e+01
8.203047484373349185e-01 8.583299438963033420e-03 2.030366338457449960e+00 1.091130459310752876e+01
8.377580409572781273e-01 8.699815845867705372e-03 2.094252475140093939e+00 1.148282061119758524e+01
8.552113334772214470e-01 8.815481517922687388e-03 2.158898901452811270e+00 1.206625062300532392e+01
8.726646259971647668e-01 8.930343449515321108e-03 2.224279012546317436e+00 1.266073162159475629e+01
8.901179185171079755e-01 9.044447230337435487e-03 2.290364440085407072e+00 1.326509184470754121e+01
9.075712110370514063e-01 9.157837171664429468e-03 2.357125597744290868e+00 1.387816518918455166e+01
9.250245035569946150e-01 9.270556307002200680e-03 2.424535298968268915e+00 1.449950796913819850e+01
9.424777960769379348e-01 9.382646410821579575e-03 2.492569091317641483e+00 1.512880461315557490e+01
9.599310885968812546e-01 9.494148208068646511e-03 2.561197756804176606e+00 1.576401353487610102e+01
9.773843811168245743e-01 9.605101505503270756e-03 2.630388317041775004e+00 1.640312144898538449e+01
9.948376736367677831e-01 9.715545193722297662e-03 2.700118359580300886e+00 1.704754441912548302e+01
1.012290966156711214e+00 9.825517249532367617e-03 2.770364135857465104e+00 1.769598448080513009e+01
1.029744258676654312e+00 9.935054853748976483e-03 2.841090937209534761e+00 1.834450148661519719e+01
1.047197551196597631e+00 1.004419456090517755e-02 2.912271819874747258e+00 1.899382764542549751e+01
1.064650843716540951e+00 1.015297231244211874e-02 2.983882104246083689e+00 1.964341448472000096e+01
1.082104136236484271e+00 1.026142343670904608e-02 3.055895335014146230e+00 2.029161960753704363e+01
1.099557428756427591e+00 1.036958267888109936e-02 3.128284499964728571e+00 2.093708296513986156e+01
1.117010721276370910e+00 1.047748437259390757e-02 3.201021993658452303e+00 2.157837463579736692e+01
1.134464013796314230e+00 1.058516250103703343e-02 3.274079789492173376e+00 2.221407970796722964e+01
1.151917306316257550e+00 1.069265069702819357e-02 3.347428764789989408e+00 2.284255192076814467e+01
1.169370598836200648e+00 1.079998224393713055e-02 3.421041946158291047e+00 2.346316516473766711e+01
1.186823891356144189e+00 1.090719015659844665e-02 3.494891502738311395e+00 2.407435993907126814e+01
1.204277183876087287e+00 1.101430732410260509e-02 3.568948805139605884e+00 2.467454349992064522e+01
1.221730476396030607e+00 1.112136652436140904e-02 3.643186138108018390e+00 2.526269781082061172e+01
1.239183768915973927e+00 1.122840042410800862e-02 3.717576055239379951e+00 2.583762483974866342e+01
1.256637061435917246e+00 1.133544158855009920e-02 3.792091457131209431e+00 2.639818245732696056e+01
1.274090353955860566e+00 1.144252260995652637e-02 3.866705573390476935e+00 2.694322629761515131e+01
1.291543646475803886e+00 1.154967619911412453e-02 3.941392037081695054e+00 2.747165406073406047e+01
1.308996938995747206e+00 1.165693518728364887e-02 4.016124655394034626e+00 2.798231794728180333e+01
1.326450231515690303e+00 1.176433252619976839e-02 4.090876929677062179e+00 2.847392285428695047e+01
1.343903524035633845e+00 1.187190132524188965e-02 4.165614363097517092e+00 2.894215877555588179e+01
1.361356816555576943e+00 1.197967501117995145e-02 4.240311690291608038e+00 2.938935854125572789e+01
1.378810109075520263e+00 1.208768737107922438e-02 4.314943298201331601e+00 2.981428761341430089e+01
1.396263401595463582e+00 1.219597255230085373e-02 4.389484253863961349e+00 3.021617062074308890e+01
1.413716694115406902e+00 1.230456506499333705e-02 4.463905995193260701e+00 3.059250118222733761e+01
1.431169986635350000e+00 1.241349988877112412e-02 4.538175436547573938e+00 3.094031300108270344e+01
1.448623279155293542e+00 1.252281261726036383e-02 4.612268093693110416e+00 3.126215979166032355e+01
1.466076571675236861e+00 1.263253946838356623e-02 4.686159024013071495e+00 3.155696589915066141e+01
1.483529864195180181e+00 1.274271728435960073e-02 4.759823931086264892e+00 3.182419114611085220e+01
1.500983156715123279e+00 1.285338356996872447e-02 4.833249242550957447e+00 3.206783611354331498e+01
1.518436449235066599e+00 1.296457669353873014e-02 4.906439071903363924e+00 3.229529190935075889e+01
1.535889741755009918e+00 1.307633595270395015e-02 4.979397446401620186e+00 3.250636648666025508e+01
1.553343034274953460e+00 1.318870157444278213e-02 5.052128471627540307e+00 3.270097006792494199e+01
1.570796326794896558e+00 1.330171472822047618e-02 5.124636097905574061e+00 3.287893369729158621e+01
1.588249619314839878e+00 1.341541772233113307e-02 5.196920590696070263e+00 3.303842365007193393e+01
1.605702911834782975e+00 1.352985415488224853e-02 5.268986113877837774e+00 3.318106240025164766e+01
1.623156204354726295e+00 1.364506891766933093e-02 5.340836493548944297e+00 3.330659375065915384e+01
1.640609496874669837e+00 1.376110820503882205e-02 5.412475619658954962e+00 3.341497800218776604e+01
1.658062789394613157e+00 1.387801972456843488e-02 5.483907184605624430e+00 3.350602864411832371e+01
1.675516081914556255e+00 1.399585291161518745e-02 5.555134884056786682e+00 3.357962963144422730e+01
1.692969374434499574e+00 1.411465893895193398e-02 5.626159630803222456e+00 3.363436787598318745e+01
1.710422666954442894e+00 1.423449073767291996e-02 5.696985228119544331e+00 3.367156180500219875e+01
1.727875959474386436e+00 1.435540329483650165e-02 5.767615254295847649e+00 3.369102646920605793e+01
1.745329251994329534e+00 1.447745387507388959e-02 5.838053312886859914e+00 3.369268220689781401e+01
1.762782544514272853e+00 1.460070202587190544e-02 5.908302917089307549e+00 3.367644372319228552e+01
1.780235837034215951e+00 1.472520968091669581e-02 5.978367531910720345e+00 3.364227028719536605e+01
1.797689129554159271e+00 1.485104160762904836e-02 6.048250568652244752e+00 3.359005363378682318e+01
1.815142422074102813e+00 1.497826552828246741e-02 6.117955393509529216e+00 3.351971916908519944e+01
1.832595714594046132e+00 1.510695214694107030e-02 6.187485328180724942e+00 3.343124989465508889e+01
1.850049007113989230e+00 1.523717558542332304e-02 6.256843664553921158e+00 3.332458984177183225e+01
1.867502299633932550e+00 1.536901373658636043e-02 6.326033423930551791e+00 3.319955009601184059e+01
1.884955592153875870e+00 1.550254828795793322e-02 6.395057438321162913e+00 3.305605419103726206e+01
1.902408884673818967e+00 1.563786516130788798e-02 6.463919122998403211e+00 3.289437225437063006e+01
1.919862177193762509e+00 1.577505503945352688e-02 6.532621865096666092e+00 3.271444229630106548e+01
1.937315469713705829e+00 1.591421342555158353e-02 6.601169051034993629e+00 3.251629851705681062e+01
1.954768762233649149e+00 1.605544124538341166e-02 6.669564063188751390e+00 3.229993323590592524e+01
1.972222054753592246e+00 1.619884542493153085e-02 6.737810289074990244e+00 3.206532225321443264e+01
1.989675347273535566e+00 1.634453905200066934e-02 6.805911126771768238e+00 3.181252731137251999e+01
2.007128639793478886e+00 1.649264232166856511e-02 6.873869803778933196e+00 3.154144394190753431e+01
2.024581932313422428e+00 1.664328294370149078e-02 6.941689032395379932e+00 3.125186215504430010e+01
2.042035224833365525e+00 1.679659682329161935e-02 7.009372073160435868e+00 3.094407479828067764e+01
2.059488517353308623e+00 1.695272908936046319e-02 7.076922253312963207e+00 3.061810253403562143e+01
2.076941809873252165e+00 1.711183457509913783e-02 7.144342925046132109e+00 3.027402838201753354e+01
2.094395102393195263e+00 1.727407916259116744e-02 7.211637500094590258e+00 2.991188109718780197e+01
2.111848394913138804e+00 1.743964047811520993e-02 7.278809446012470374e+00 2.953176549162527920e+01
2.129301687433081902e+00 1.760870982966682152e-02 7.345862289113911814e+00 2.913366302031288768e+01
2.146754979953025444e+00 1.778149298224208918e-02 7.412799646518859475e+00 2.871768525546217887e+01
2.164208272472968542e+00 1.795821098850547415e-02 7.479625166140335679e+00 2.828403561526317844e+01
2.181661564992911639e+00 1.813910342141302617e-02 7.546341872524729766e+00 2.783240110672860723e+01
2.199114857512855181e+00 1.832443085752104642e-02 7.612951607427054235e+00 2.736220276092119974e+01
2.216568150032798723e+00 1.851439389171728039e-02 7.679457934983535239e+00 2.688589109145522471e+01
2.234021442552741821e+00 1.870909276218551964e-02 7.745864778142677487e+00 2.641917881788372924e+01
2.251474735072684918e+00 1.890865548593533702e-02 7.812176393306664579e+00 2.595865725081904785e+01
2.268928027592628460e+00 1.911314175187402847e-02 7.878396456765324629e+00 2.551310284456428334e+01
2.286381320112572002e+00 1.932247304283860045e-02 7.944525766262524158e+00 2.509734692720002869e+01
2.303834612632515100e+00 1.953659243443500726e-02 8.010567825821691912e+00 2.470744912505849555e+01
2.321287905152458197e+00 1.975546849587572762e-02 8.076528016522999565e+00 2.433931443519615101e+01
2.338741197672401295e+00 1.997904902896227922e-02 8.142409942077787122e+00 2.399303902870975946e+01
2.356194490192344837e+00 2.020723449807054067e-02 8.208214116089289192e+00 2.367086528908384935e+01
2.373647782712288379e+00 2.043997676968643817e-02 8.273944891055304396e+00 2.336716944194438383e+01
2.391101075232231477e+00 2.067724333964796393e-02 8.339606703423378065e+00 2.307926020393493260e+01
2.408554367752174574e+00 2.091896812473913875e-02 8.405201683943724689e+00 2.280854404400052005e+01
2.426007660272118116e+00 2.116506931760405233e-02 8.470733709196007766e+00 2.255593842818516848e+01
2.443460952792061214e+00 2.141550113812020276e-02 8.536206122230025173e+00 2.231689295019579333e+01
2.460914245312004311e+00 2.167022209813864939e-02 8.601621457557705241e+00 2.208997453398232835e+01
2.478367537831947853e+00 2.192915963114435915e-02 8.666984382267802545e+00 2.187784216007283078e+01
2.495820830351891395e+00 2.219224189441041870e-02 8.732298514255898425e+00 2.167924551959540835e+01
2.513274122871834493e+00 2.245942835990374226e-02 8.797565098529670280e+00 2.149012386712896827e+01
2.530727415391777591e+00 2.273067185969836548e-02 8.862787612303502982e+00 2.131123096242626502e+01
2.548180707911721132e+00 2.300588659806029543e-02 8.927969728603910582e+00 2.114508709235925465e+01
2.565634000431664674e+00 2.328501581537904472e-02 8.993110661094529945e+00 2.098739859919615114e+01
2.583087292951607772e+00 2.356801983393279343e-02 9.058206421044342704e+00 2.083542254182397357e+01
2.600540585471550870e+00 2.385484296839212107e-02 9.123251244474877453e+00 2.068941431199007397e+01
2.617993877991494411e+00 2.414539909691076208e-02 9.188238926471804291e+00 2.055101547882305724e+01
2.635447170511437509e+00 2.443964926184202455e-02 9.253163521090955967e+00 2.041656937361030444e+01
2.652900463031380607e+00 2.473755085025733727e-02 9.318019623263493756e+00 2.028624405619406446e+01
2.670353755551324149e+00 2.503900582599349542e-02 9.382802467666900625e+00 2.016369545224481641e+01
2.687807048071267690e+00 2.534397590023683422e-02 9.447507153512733069e+00 2.004452351303587676e+01
2.705260340591210788e+00 2.565242200194301631e-02 9.512127966634659870e+00 1.992832589952082856e+01
2.722713633111153886e+00 2.596424987144139995e-02 9.576658600756839945e+00 1.981823668527735194e+01
2.740166925631096984e+00 2.627940841995395765e-02 9.641092939996140032e+00 1.971126774334006626e+01
2.757620218151040525e+00 2.659786183101728665e-02 9.705425215214239287e+00 1.960638713113574028e+01
2.775073510670984067e+00 2.691953943865877177e-02 9.769649927221214725e+00 1.950564596600890610e+01
2.792526803190927165e+00 2.724437299057161713e-02 9.833761645500780801e+00 1.940868954368063726e+01
2.809980095710870263e+00 2.757230670034946374e-02 9.897754975637633734e+00 1.931458349307031952e+01
2.827433388230813804e+00 2.790328716018361868e-02 9.961624558734422763e+00 1.922303231592336914e+01
2.844886680750756902e+00 2.823725987915530478e-02 1.002536503822143743e+01 1.913394532751472354e+01
2.862339973270700000e+00 2.857416725505119992e-02 1.008897100941597280e+01 1.904733601337688853e+01
2.879793265790643542e+00 2.891394994634780349e-02 1.015243701529867160e+01 1.896313861303260495e+01
2.897246558310587083e+00 2.925654774554820037e-02 1.021575754651351531e+01 1.888124197286227357e+01
2.914699850830530625e+00 2.960189981244021329e-02 1.027892704136782420e+01 1.880152722672235299e+01
2.932153143350473723e+00 2.994994509852667852e-02 1.034193988583226265e+01 1.872385794429692751e+01
2.949606435870416821e+00 3.030062460046848566e-02 1.040479041354083201e+01 1.864798383044990970e+01
2.967059728390360362e+00 3.065388205482294862e-02 1.046747290579087775e+01 1.857362898381834881e+01
2.984513020910303460e+00 3.100966119350869951e-02 1.052998162761925549e+01 1.850068261029148431e+01
3.001966313430246558e+00 3.136790401228129604e-02 1.059231094652303007e+01 1.842916291178613619e+01
3.019419605950190100e+00 3.172855144624520812e-02 1.065445526619959793e+01 1.835903466066706358e+01
3.036872898470133197e+00 3.209154450026426714e-02 1.071640900096269355e+01 1.829020014315815956e+01
3.054326190990076295e+00 3.245682435087138967e-02 1.077816657574237524e+01 1.822256078956828773e+01
3.071779483510019837e+00 3.282433234386514936e-02 1.083972242608503578e+01 1.815602229438889736e+01
3.089232776029963379e+00 3.319400999280344711e-02 1.090107099815339886e+01 1.809049429072160109e+01
3.106686068549906921e+00 3.356579897788756345e-02 1.096220674872651735e+01 1.802589007228072759e+01
3.124139361069850018e+00 3.393964112794425197e-02 1.102312414519977501e+01 1.796212716584392766e+01
3.141592653589793116e+00 3.431547840565032231e-02 1.108381766558488657e+01 1.789912691835600000e+01
3.159045946109736214e+00 3.469325290709635717e-02 1.114428180015740999e+01 1.783681407558136911e+01
3.176499238629679756e+00 3.507290685263613622e-02 1.120451105994407470e+01 1.777511903511136282e+01
3.193952531149622853e+00 3.545438243707138559e-02 1.126449997944806292e+01 1.771398249563429417e+01
3.211405823669565951e+00 3.583762170735059482e-02 1.132424311664681937e+01 1.765335294832922131e+01
3.228859116189509493e+00 3.622256655899240563e-02 1.138373498067019263e+01 1.759315940087732599e+01
3.246312408709452590e+00 3.660915873608559801e-02 1.144296977336913912e+01 1.753325552219929762e+01
3.263765701229396576e+00 3.699733983128909720e-02 1.150194133162242593e+01 1.747347852960430714e+01
3.281218993749339674e+00 3.738705128583197368e-02 1.156064335961621659e+01 1.741373527032843072e+01
3.298672286269282772e+00 3.777823438951345009e-02 1.161907026997053727e+01 1.735418454108085484e+01
3.316125578789226314e+00 3.817083028070288042e-02 1.167721734322240579e+01 1.729503612931929979e+01
3.333578871309169411e+00 3.856477994633976392e-02 1.173507995476284371e+01 1.723627234765287497e+01
3.351032163829112509e+00 3.896002323889732194e-02 1.179265276579641508e+01 1.717767719412595540e+01
3.368485456349056051e+00 3.935649657744506869e-02 1.184992990002467295e+01 1.711918455766253189e+01
3.385938748868999149e+00 3.975413849744580813e-02 1.190690541751021136e+01 1.706062826104374963e+01
3.403392041388942246e+00 4.015289128396394569e-02 1.196357341457685486e+01 1.700180578256502528e+01
3.420845333908885788e+00 4.055270097166552984e-02 1.201992812453938519e+01 1.694255001981010267e+01
3.438298626428828886e+00 4.095351722104951381e-02 1.207596389771564915e+01 1.688269811658444297e+01
