# angles(rad), pulling distance(m),                                     elastic band force(n), cable force(n)
0.000000000000000000e+00 3.444115549513807268e-04 2.327331928220951335e-02 1.572674849681298531e-02
1.745329251994329547e-02 6.819165737641197335e-04 4.694645027183244612e-02 3.292897601026609916e-02
3.490658503988659095e-02 1.012874627390335843e-03 7.104376568947724790e-02 5.172752291473393937e-02
5.235987755982988295e-02 1.337427724778588898e-03 9.558990731758292003e-02 7.229520907723771539e-02
6.981317007977318190e-02 1.655664402241531800e-03 1.206098227263691230e-01 9.482400288174967773e-02
8.726646259971647390e-02 1.967646122882712664e-03 1.461297213600555589e-01 1.195331466476054483e-01
1.047197551196597659e-01 2.273449886646631852e-03 1.721780890755527371e-01 1.466613138304607711e-01
1.221730476396030718e-01 2.573162660304579609e-03 1.987856335690742771e-01 1.764755477488725022e-01
1.396263401595463638e-01 2.866861690651809676e-03 2.259853085086594160e-01 2.092865926486151551e-01
1.570796326794896558e-01 3.154608571500986010e-03 2.538128188065703617e-01 2.454580500833901668e-01
1.745329251994329478e-01 3.436487827831983741e-03 2.823066689390540951e-01 2.853705526562204664e-01
1.919862177193762398e-01 3.712583422345863780e-03 3.115083382597300110e-01 3.294715187509656418e-01
2.094395102393195318e-01 3.982969346514064236e-03 3.414644958887683712e-01 3.783097916443634579e-01
2.268928027592628516e-01 4.247711202404184060e-03 3.722224150761486161e-01 4.324509596017740987e-01
2.443460952792061436e-01 4.506890128031191059e-03 4.038235261869774217e-01 4.923730619427960087e-01
2.617993877991494078e-01 4.760586879912937462e-03 4.363043087005899490e-01 5.586001892236119870e-01
2.792526803190927276e-01 5.008880395926866222e-03 4.697024649956371145e-01 6.318004831512868957e-01
2.967059728390360474e-01 5.251847724843192004e-03 5.040562645393917851e-01 7.126986145830135344e-01
3.141592653589793116e-01 5.489564005445085083e-03 5.394036317411989856e-01 8.020695171937077816e-01
3.316125578789225758e-01 5.722100597041810018e-03 5.757825140770993499e-01 9.007754085862634819e-01
3.490658503988658956e-01 5.949535320138081562e-03 6.132307441508767498e-01 1.009714158095161407e+00
3.665191429188092154e-01 6.171945983314574592e-03 6.517860816972398386e-01 1.129884333284725262e+00
3.839724354387524796e-01 6.389410392800803917e-03 6.914862172630497072e-01 1.262371927070232269e+00
4.014257279586957439e-01 6.602006516586829410e-03 7.323687926110742374e-01 1.408356926422578592e+00
4.188790204786390636e-01 6.809808295870942857e-03 7.744714221383841579e-01 1.569153232379184360e+00
4.363323129985823834e-01 7.012889375646313983e-03 8.178317120375441229e-01 1.746170552268985654e+00
4.537856055185257032e-01 7.211440882510879863e-03 8.624872865361393748e-01 1.939792141908910139e+00
4.712388980384689674e-01 7.405716276127341166e-03 9.084757962906617745e-01 2.150527004049809676e+00
4.886921905584122872e-01 7.595952220265740976e-03 9.558344258233255619e-01 2.379519216105698387e+00
5.061454830783556069e-01 7.782368917457422111e-03 1.004600257716547596e+00 2.627992450553895409e+00
5.235987755982988157e-01 7.965171338177080146e-03 1.054810764675311319e+00 2.897258309348679450e+00
5.410520681182421354e-01 8.144550526794438333e-03 1.106503378146963978e+00 3.188667084097531745e+00
5.585053606381854552e-01 8.320685025657753239e-03 1.159715499297353958e+00 3.503624902949013631e+00
5.759586531581287749e-01 8.493741906250075815e-03 1.214484549975800132e+00 3.843601342989027003e+00
5.934119456780720947e-01 8.663877805536047971e-03 1.270848045832810858e+00 4.210130775856419483e+00
6.108652381980153034e-01 8.831239820157803927e-03 1.328843679779302844e+00 4.604816200304717277e+00
6.283185307179586232e-01 8.995966328633137402e-03 1.388509559073122013e+00 5.029344974089395848e+00
6.457718232379019430e-01 9.158187700056285435e-03 1.449884057025653039e+00 5.485461336485179196e+00
6.632251157578451517e-01 9.318026936042772893e-03 1.513007123900546924e+00 5.975106754904614625e+00
6.806784082777884715e-01 9.475600297766079844e-03 1.577918032447823915e+00 6.500089353882895438e+00
6.981317007977317912e-01 9.631017809730010870e-03 1.644650255095804425e+00 7.061698878990057437e+00
7.155849933176750000e-01 9.784383743226123670e-03 1.713236259433094322e+00 7.661677325705400499e+00
7.330382858376184307e-01 9.935797091318879226e-03 1.783722077016089536e+00 8.303568379076951445e+00
7.504915783575616395e-01 1.008535191652044742e-02 1.856146627530280702e+00 8.988716011411108653e+00
7.679448708775049592e-01 1.023313777239225411e-02 1.930514273789696755e+00 9.714583426473446082e+00
7.853981633974482790e-01 1.037923999525235640e-02 2.006789670881127474e+00 1.047682068273578793e+01
8.028514559173914877e-01 1.052374003630128334e-02 2.084912568114099862e+00 1.127192830646743005e+01
8.203047484373349185e-01 1.066671573495024672e-02 2.164818970088826955e+00 1.209876198969608119e+01
8.377580409572781273e-01 1.080824157261032169e-02 2.246442634064588439e+00 1.295614155940375767e+01
8.552113334772214470e-01 1.094838892563305272e-02 2.329715069959729767e+00 1.384264808666760693e+01
8.726646259971647668e-01 1.108722626654018092e-02 2.414567548075177150e+00 1.475698386994953815e+01
8.901179185171079755e-01 1.122481938713108113e-02 2.500936630090637269e+00 1.569872098198875676e+01
9.075712110370514063e-01 1.136123157104988214e-02 2.588756177196723129e+00 1.666591564759506383e+01
9.250245035569946150e-01 1.149652377771836001e-02 2.677954850197105330e+00 1.765585948182890874e+01
9.424777960769379348e-01 1.163075480673274147e-02 2.768460477056194691e+00 1.866641809649987493e+01
9.599310885968812546e-01 1.176398143434638499e-02 2.860217564765866527e+00 1.969915764287413040e+01
9.773843811168245743e-01 1.189625858502891403e-02 2.953170403289154144e+00 2.075230455239503158e+01
9.948376736367677831e-01 1.202763941871783614e-02 3.047238869567150399e+00 2.181818144963145656e+01
1.012290966156711214e+00 1.215817551112029563e-02 3.142360494108410229e+00 2.289837466348403794e+01
1.029744258676654312e+00 1.228791690914747201e-02 3.238473546865734853e+00 2.399076806601910050e+01
1.047197551196597631e+00 1.241691229611556653e-02 3.335517337369551250e+00 2.509324196140444840e+01
1.064650843716540951e+00 1.254520905535513702e-02 3.433412347770858908e+00 2.619816271971243182e+01
1.082104136236484271e+00 1.267285338254144772e-02 3.532095042993303124e+00 2.730686637688652141e+01
1.099557428756427591e+00 1.279989039077607769e-02 3.631514811100339912e+00 2.842040799087742542e+01
1.117010721276370910e+00 1.292636416048992959e-02 3.731588231358132113e+00 2.952650167308456375e+01
1.134464013796314230e+00 1.305231787409908903e-02 3.832266128259592897e+00 3.063224442568738581e+01
1.151917306316257550e+00 1.317779384828712472e-02 3.933465702157085353e+00 3.172440425942934183e+01
1.169370598836200648e+00 1.330283363765837230e-02 4.035137888180926780e+00 3.281045913960236504e+01
1.186823891356144189e+00 1.342747810906030036e-02 4.137210707676422849e+00 3.388010370855167963e+01
1.204277183876087287e+00 1.355176748167044413e-02 4.239611634443476440e+00 3.492978936028194425e+01
1.221730476396030607e+00 1.367574144061626390e-02 4.342279743763236333e+00 3.596026578650264582e+01
1.239183768915973927e+00 1.379943916205218779e-02 4.445151712379481701e+00 3.696765810575000444e+01
1.256637061435917246e+00 1.392289939463416115e-02 4.548162256048074781e+00 3.794814385898838083e+01
1.274090353955860566e+00 1.404616053336748931e-02 4.651245214767464553e+00 3.889823860097049391e+01
1.291543646475803886e+00 1.416926064393679921e-02 4.754334233833780843e+00 3.981472073523192989e+01
1.308996938995747206e+00 1.429223756538741501e-02 4.857363067693584391e+00 4.069450158573943810e+01
1.326450231515690303e+00 1.441512894142338991e-02 4.960265720417293522e+00 4.153460700903850267e+01
1.343903524035633845e+00 1.453797227580715286e-02 5.062976545940511386e+00 4.233217074796193913e+01
1.361356816555576943e+00 1.466080501906045011e-02 5.165430308440466689e+00 4.308442163012755088e+01
1.378810109075520263e+00 1.478366458483537649e-02 5.267562146381883359e+00 4.378867856868249220e+01
1.396263401595463582e+00 1.490658843867853807e-02 5.369307402125210515e+00 4.444227362825763805e+01
1.413716694115406902e+00 1.502961414941704661e-02 5.470601341412025143e+00 4.504251646366646611e+01
1.431169986635350000e+00 1.515277942218269495e-02 5.571378850391836224e+00 4.558668766914760084e+01
1.448623279155293542e+00 1.527612219851936723e-02 5.671574112993212680e+00 4.607200149795600197e+01
1.466076571675236861e+00 1.539968067854326911e-02 5.771116869597758381e+00 4.649400686829643803e+01
1.483529864195180181e+00 1.552349339423500334e-02 5.869941779820713634e+00 4.685273771468355619e+01
1.500983156715123279e+00 1.564759928680924811e-02 5.967983759751261275e+00 4.714626613311875047e+01
1.518436449235066599e+00 1.577203773027868045e-02 6.065177810723858087e+00 4.737275594725439021e+01
1.535889741755009918e+00 1.589684864039304923e-02 6.161459001083684051e+00 4.753050886609230474e+01
1.553343034274953460e+00 1.602207251301558666e-02 6.256762642697112575e+00 4.761809805685314245e+01
1.570796326794896558e+00 1.614775049154025185e-02 6.351024597163718255e+00 4.763443830190611550e+01
1.588249619314839878e+00 1.627392446806978643e-02 6.444181253985699520e+00 4.757862105072592129e+01
1.605702911834782975e+00 1.640063711074708080e-02 6.536157889393607867e+00 4.744386972437506245e+01
1.623156204354726295e+00 1.652793198825673951e-02 6.626887750843192926e+00 4.723337020614462745e+01
1.640609496874669837e+00 1.665585362193110902e-02 6.716327305777540779e+00 4.695885346111792558e+01
1.658062789394613157e+00 1.678444757167219317e-02 6.804479237100431455e+00 4.664511725509952811e+01
1.675516081914556255e+00 1.691376055290494049e-02 6.891339577118263726e+00 4.628955988335450655e+01
1.692969374434499574e+00 1.704384048246828168e-02 6.976924963052415052e+00 4.590430034832473893e+01
1.710422666954442894e+00 1.717473663610824888e-02 7.061240143156438442e+00 4.548412752184965058e+01
1.727875959474386436e+00 1.730649970189442055e-02 7.144296807248751158e+00 4.503397492726772100e+01
1.745329251994329534e+00 1.743918192935653769e-02 7.226098060047140059e+00 4.455034298581015406e+01
1.762782544514272853e+00 1.757283723288028537e-02 7.306661483091829723e+00 4.404237202619287928e+01
1.780235837034215951e+00 1.770752131324533282e-02 7.385986599214584558e+00 4.350137321915132560e+01
1.797689129554159271e+00 1.784329181948734327e-02 7.464083372720435428e+00 4.293427525040551984e+01
1.815142422074102813e+00 1.798020845279488591e-02 7.540962924116384691e+00 4.234298146941132046e+01
1.832595714594046132e+00 1.811833317638165269e-02 7.616634811808080663e+00 4.172787601676125746e+01
1.850049007113989230e+00 1.825773032215843514e-02 7.691107408080847030e+00 4.108955988307486251e+01
1.867502299633932550e+00 1.839846683716525252e-02 7.764388349686915269e+00 4.042886021674573982e+01
1.884955592153875870e+00 1.854061241068377316e-02 7.836484972897812540e+00 3.974686586461019289e+01
1.902408884673818967e+00 1.868423975322987610e-02 7.907404722908772499e+00 3.904487517787014639e+01
1.919862177193762509e+00 1.882942475686275388e-02 7.977155634152528485e+00 3.832447296157246797e+01
1.937315469713705829e+00 1.897624680734026972e-02 8.045746270378502984e+00 3.758719169247252978e+01
1.954768762233649149e+00 1.912478899358001014e-02 8.113187753533477320e+00 3.683569153411798425e+01
1.972222054753592246e+00 1.927513844819801411e-02 8.179489330199169572e+00 3.607017001094418163e+01
1.989675347273535566e+00 1.942738663527318263e-02 8.244656534004315418e+00 3.528982662956884298e+01
2.007128639793478886e+00 1.958162970532756689e-02 8.308699800283250170e+00 3.449855306650954390e+01
2.024581932313422428e+00 1.973796889655038411e-02 8.371628175996409738e+00 3.369679471087705025e+01
2.042035224833365525e+00 1.989651090897891564e-02 8.433447471076847890e+00 3.288401413441771837e+01
2.059488517353308623e+00 2.005736841363032347e-02 8.494166578688146174e+00 3.206304957156631019e+01
2.076941809873252165e+00 2.022066052829211633e-02 8.553796389174324943e+00 3.123612298611304183e+01
2.094395102393195263e+00 2.038651336763820654e-02 8.612345873983322520e+00 3.040336336156344288e+01
2.111848394913138804e+00 2.055506069177622658e-02 8.669822213697029767e+00 2.956496932599432981e+01
2.129301687433081902e+00 2.072644456889113918e-02 8.726232547505688331e+00 2.872205362507494542e+01
2.146754979953025444e+00 2.090081612471595546e-02 8.781584329119951349e+00 2.787589614105516489e+01
2.164208272472968542e+00 2.107833640616468829e-02 8.835885394869682941e+00 2.702778464907258638e+01
2.181661564992911639e+00 2.125917732450928119e-02 8.889144146759887732e+00 2.617907091836607592e+01
2.199114857512855181e+00 2.144352270274199265e-02 8.941369582913747394e+00 2.533108943425923698e+01
2.216568150032798723e+00 2.163156946265517785e-02 8.992571297572613531e+00 2.448513709251873394e+01
2.234021442552741821e+00 2.182352895333627626e-02 9.042759481096020124e+00 2.364247116852541808e+01
2.251474735072684918e+00 2.201962846389538334e-02 9.091944919961671090e+00 2.280430480196667631e+01
2.268928027592628460e+00 2.222011292817839892e-02 9.140138996765449164e+00 2.197180526594235417e+01
2.286381320112572002e+00 2.242524685074712837e-02 9.187344020516933440e+00 2.114173937059369379e+01
2.303834612632515100e+00 2.263531622131211007e-02 9.233567342231740582e+00 2.031739099743169064e+01
2.321287905152458197e+00 2.285063448207295261e-02 9.278818868263833508e+00 1.950046930904159481e+01
2.338741197672401295e+00 2.307148979197072569e-02 9.323107131316747953e+00 1.869568910493413227e+01
2.356194490192344837e+00 2.329802322663896558e-02 9.366440583477436022e+00 1.791701103788378191e+01
2.373647782712288379e+00 2.353035500083375947e-02 9.408827152195522459e+00 1.716544799028486068e+01
2.391101075232231477e+00 2.376853648703504060e-02 9.450275904861809906e+00 1.644553297806587722e+01
2.408554367752174574e+00 2.401250549257291644e-02 9.490802445561751455e+00 1.576550229145544613e+01
2.426007660272118116e+00 2.426217074721576800e-02 9.530426231407732374e+00 1.512551550492816155e+01
2.443460952792061214e+00 2.451737079838724534e-02 9.569167267006422506e+00 1.452662129334103192e+01
2.460914245312004311e+00 2.477790589555556311e-02 9.607059460658817329e+00 1.397249589287286220e+01
2.478367537831947853e+00 2.504366480618578847e-02 9.644140918837448950e+00 1.345651241956952049e+01
2.495820830351891395e+00 2.531452665468537921e-02 9.680453930337693080e+00 1.297807117713981029e+01
2.513274122871834493e+00 2.559030999958031641e-02 9.716042614340276273e+00 1.253814549566506642e+01
2.530727415391777591e+00 2.587084353794791985e-02 9.750948098121329011e+00 1.213265132822978210e+01
2.548180707911721132e+00 2.615599995729680702e-02 9.785207925752471780e+00 1.175633842073908752e+01
2.565634000431664674e+00 2.644564302096093916e-02 9.818856058100809747e+00 1.140666598304475343e+01
2.583087292951607772e+00 2.673963283505291152e-02 9.851923116211970921e+00 1.108113609978839342e+01
2.600540585471550870e+00 2.703781388083653994e-02 9.884437817323576070e+00 1.077833570681585229e+01
2.617993877991494411e+00 2.734000754533856201e-02 9.916427499699736359e+00 1.049735329641518433e+01
2.635447170511437509e+00 2.764607370160195032e-02 9.947918123408024726e+00 1.023524293341057678e+01
2.652900463031380607e+00 2.795586723754435801e-02 9.978934270319482991e+00 9.990785973196018688e+00
2.670353755551324149e+00 2.826924236981174371e-02 1.000949916407386731e+01 9.762717171299865271e+00
2.687807048071267690e+00 2.858605185197118925e-02 1.003963486171680408e+01 9.549947765954270196e+00
2.705260340591210788e+00 2.890614859436639941e-02 1.006936236049457811e+01 9.351452783452499418e+00
2.722713633111153886e+00 2.922938542878524351e-02 1.009870159901027620e+01 9.166288719691266351e+00
2.740166925631096984e+00 2.955561901845896525e-02 1.012767145722377293e+01 8.993470183192478373e+00
2.757620218151040525e+00 2.988470423681083635e-02 1.015628975645173959e+01 8.832233205481696103e+00
2.775073510670984067e+00 3.021646977084254185e-02 1.018457328033799669e+01 8.682505929571702197e+00
2.792526803190927165e+00 3.055075997395629434e-02 1.021253803349145350e+01 8.543208939919406220e+00
2.809980095710870263e+00 3.088744085032536779e-02 1.024019941568636582e+01 8.413250934956391092e+00
2.827433388230813804e+00 3.122637244144235019e-02 1.026757222511383993e+01 8.292301607962530241e+00
2.844886680750756902e+00 3.156739953127679632e-02 1.029467065838184325e+01 8.180272305864832560e+00
2.862339973270700000e+00 3.191037318277389900e-02 1.032150831051520257e+01 8.076569390098489620e+00
2.879793265790643542e+00 3.225514171731128782e-02 1.034809817495559692e+01 7.980848021910418311e+00
2.897246558310587083e+00 3.260155065625477966e-02 1.037445265105603553e+01 7.892788947111452735e+00
2.914699850830530625e+00 3.294945460047046804e-02 1.040058367264387051e+01 7.811865343712667276e+00
2.932153143350473723e+00 3.329871113583555975e-02 1.042650281612465513e+01 7.737751341186489995e+00
2.949606435870416821e+00 3.364917067862711192e-02 1.045222130384619419e+01 7.670366831062962021e+00
2.967059728390360362e+00 3.400067975165543127e-02 1.047775000409855117e+01 7.609571407910973306e+00
2.984513020910303460e+00 3.435308811914727228e-02 1.050309943111404287e+01 7.555086003218553614e+00
3.001966313430246558e+00 3.470624940007261544e-02 1.052827974506724118e+01 7.506638006105125882e+00
3.019419605950190100e+00 3.506001845497418168e-02 1.055330075207497664e+01 7.464027970051568595e+00
3.036872898470133197e+00 3.541424897984698367e-02 1.057817190713834421e+01 7.427122602826829123e+00
3.054326190990076295e+00 3.576879341640451515e-02 1.060290239451488858e+01 7.395827343062627790e+00
3.071779483510019837e+00 3.612350295207875789e-02 1.062750121585562901e+01 7.370086716457050713e+00
3.089232776029963379e+00 3.647822752002016777e-02 1.065197719470418214e+01 7.349859357807523530e+00
3.106686068549906921e+00 3.683281579909769565e-02 1.067633897649676022e+01 7.335116692679748418e+00
3.124139361069850018e+00 3.718711536652070243e-02 1.070059502856217826e+01 7.325839882662458891e+00
3.141592653589793116e+00 3.754097362486488731e-02 1.072475364012184507e+01 7.322003970664028749e+00
3.159045946109736214e+00 3.789423922084682317e-02 1.074882292228977221e+01 7.323567730125333242e+00
3.176499238629679756e+00 3.824676236186212025e-02 1.077281080807256686e+01 7.330496218757145854e+00
3.193952531149622853e+00 3.859839481598541927e-02 1.079672505474526467e+01 7.342767801686843399e+00
3.211405823669565951e+00 3.894898991197040528e-02 1.082057329894444031e+01 7.360390301048616024e+00
3.228859116189509493e+00 3.929840253924979376e-02 1.084436311201195124e+01 7.383401489514438865e+00
3.246312408709452590e+00 3.964648912922623392e-02 1.086810200242088875e+01 7.411853539261388235e+00
3.263765701229396576e+00 3.999310521236583427e-02 1.089179741577558147e+01 7.445864588990509070e+00
3.281218993749339674e+00 4.033810057419028733e-02 1.091545673481159007e+01 7.485673776799283807e+00
3.298672286269282772e+00 4.068131868467274315e-02 1.093908727939571612e+01 7.531554477181700236e+00
3.316125578789226314e+00 4.102259958124319927e-02 1.096269630652599147e+01 7.583741050923438642e+00
3.333578871309169411e+00 4.136179034234334362e-02 1.098629101033168531e+01 7.642256571823152989e+00
3.351032163829112509e+00 4.169874717392960811e-02 1.100987852207335038e+01 7.707089293639405980e+00
3.368485456349056051e+00 4.203333023999950707e-02 1.103346593207864146e+01 7.778363913521481265e+00
3.385938748868999149e+00 4.236540103753660275e-02 1.105706037405931674e+01 7.856311708451966247e+00
3.403392041388942246e+00 4.269487766728280453e-02 1.108066904536712904e+01 7.939861275266389740e+00
3.420845333908885788e+00 4.302179588254336634e-02 1.110429920699382045e+01 8.026361724851096113e+00
3.438298626428828886e+00 4.334624570952719247e-02 1.112795818357112587e+01 8.114539756911884893e+00
