# angles(rad), pulling distance(m),                                     elastic band force(n), cable force(n)
0.000000000000000000e+00 3.162248886202933293e-04 2.361042834918211653e-02 1.762835080009223301e-02
1.745329251994329547e-02 6.236778274089239266e-04 4.761094404935693053e-02 3.716624777303937505e-02
3.490658503988659095e-02 9.229167684737947693e-04 7.202309670089115934e-02 5.875701955238522151e-02
5.235987755982988295e-02 1.214456162880839067e-03 9.686896108159731567e-02 8.255464324567159118e-02
6.981317007977318190e-02 1.498650111192432023e-03 1.221720514874326258e-01 1.087753797087723517e-01
8.726646259971647390e-02 1.775657510909694906e-03 1.479575240410935522e-01 1.377275364904805843e-01
1.047197551196597659e-01 2.045634911375829139e-03 1.742522887789109964e-01 1.697150550585600770e-01
1.221730476396030718e-01 2.308741514930049126e-03 2.010852149813578127e-01 2.050767506823902298e-01
1.396263401595463638e-01 2.565136040919772757e-03 2.284863023209180444e-01 2.441851323315528122e-01
1.570796326794896558e-01 2.814978476895219593e-03 2.564784347015609534e-01 2.873562399004038204e-01
1.745329251994329478e-01 3.058429450717923583e-03 2.850722214745295413e-01 3.348228264502826068e-01
1.919862177193762398e-01 3.295650558988645531e-03 3.142781850549896672e-01 3.869300372871574134e-01
2.094395102393195318e-01 3.526804382306681675e-03 3.441078974929481227e-01 4.440609929139001655e-01
2.268928027592628516e-01 3.752054265582061444e-03 3.745729101951497109e-01 5.066092954660870173e-01
2.443460952792061436e-01 3.971556277962150043e-03 4.056847684212230853e-01 5.750109925071216210e-01
2.617993877991494078e-01 4.185449987020803571e-03 4.374549853443669423e-01 6.497638401646562700e-01
2.792526803190927276e-01 4.393896716354599337e-03 4.698950316461401600e-01 7.312859564787882460e-01
2.967059728390360474e-01 4.597069197676901392e-03 5.030163231176084659e-01 8.200200216315240986e-01
3.141592653589793116e-01 4.795128250056139053e-03 5.368302129936269873e-01 9.165103784061613412e-01
3.316125578789225758e-01 4.988221181436987978e-03 5.713479891302321034e-01 1.021355978381135898e+00
3.490658503988658956e-01 5.176507699312763409e-03 6.065808780724291083e-01 1.135057196484269060e+00
3.665191429188092154e-01 5.360143757415270632e-03 6.425400575565550776e-01 1.258206775627870089e+00
3.839724354387524796e-01 5.539309598781302392e-03 6.792366797188454930e-01 1.391207810839824921e+00
4.014257279586957439e-01 5.714250884093208076e-03 7.166819047875724324e-01 1.534018409639996028e+00
4.188790204786390636e-01 5.885213951050316007e-03 7.548869545393677161e-01 1.686942926824848588e+00
4.363323129985823834e-01 6.052425096758577878e-03 7.938631552392485524e-01 1.850460956761258435e+00
4.537856055185257032e-01 6.216094190698673132e-03 8.336220935818162703e-01 2.025057304456805873e+00
4.712388980384689674e-01 6.376416147752415539e-03 8.741754490805421218e-01 2.211222243434689982e+00
4.886921905584122872e-01 6.533571967892894475e-03 9.155358264605204521e-01 2.409513516804455247e+00
5.061454830783556069e-01 6.687730379502807888e-03 9.577149301963542305e-01 2.620392683619948926e+00
5.235987755982988157e-01 6.839048740376927650e-03 1.000719568042852670e+00 2.844042346281303146e+00
5.410520681182421354e-01 6.987674331337605065e-03 1.044562590660040202e+00 3.081352342578271397e+00
5.585053606381854552e-01 7.133744973182116512e-03 1.089257158602526587e+00 3.332899579767914400e+00
5.759586531581287749e-01 7.277390070423266945e-03 1.134813587477189190e+00 3.599012808429814303e+00
5.934119456780720947e-01 7.418731216457133924e-03 1.181244382453728869e+00 3.880406893386628475e+00
6.108652381980153034e-01 7.557882823334294113e-03 1.228561515204742660e+00 4.177602372859919200e+00
6.283185307179586232e-01 7.694952892765120206e-03 1.276775053260253534e+00 4.490976248447599239e+00
6.457718232379019430e-01 7.830043231564731004e-03 1.325894515071465829e+00 4.821012781332726149e+00
6.632251157578451517e-01 7.963250263844100924e-03 1.375930004343205892e+00 5.168295531619776284e+00
6.806784082777884715e-01 8.094665279574109543e-03 1.426894699143599121e+00 5.533709557479983054e+00
6.981317007977317912e-01 8.224374761015547028e-03 1.478804942144157142e+00 5.918235355199394476e+00
7.155849933176750000e-01 8.352461003589401606e-03 1.531675368130045678e+00 6.322328421683165445e+00
7.330382858376184307e-01 8.479002192639606764e-03 1.585515433379108385e+00 6.745965880932233816e+00
7.504915783575616395e-01 8.604072737495157761e-03 1.640329341174017630e+00 7.188971741047536668e+00
7.679448708775049592e-01 8.727743739372208903e-03 1.696116041802273378e+00 7.651002774997571088e+00
7.853981633974482790e-01 8.850083028571148827e-03 1.752866388561164390e+00 8.131138902653793465e+00
8.028514559173914877e-01 8.971155392352362160e-03 1.810555544180378007e+00 8.627024143527943778e+00
8.203047484373349185e-01 9.091022994758545320e-03 1.869155266438022434e+00 9.137746753165444602e+00
8.377580409572781273e-01 9.209745421819716393e-03 1.928637690563392626e+00 9.662879030863839702e+00
8.552113334772214470e-01 9.327379762105828323e-03 1.988975329236969403e+00 1.020195926242863216e+01
8.726646259971647668e-01 9.443980985564506131e-03 2.050141072590420332e+00 1.075446714578208685e+01
8.901179185171079755e-01 9.559602054790297676e-03 2.112108188206598847e+00 1.131984448585953018e+01
9.075712110370514063e-01 9.674293930119879162e-03 2.174850295828608004e+00 1.189750284669407243e+01
9.250245035569946150e-01 9.788105764505953404e-03 2.238341237344275036e+00 1.248678517123699550e+01
9.424777960769379348e-01 9.901085155157847081e-03 2.302555034724935279e+00 1.308697113734777773e+01
9.599310885968812546e-01 1.001327816020827592e-02 2.367465639585818682e+00 1.369725559840389373e+01
9.773843811168245743e-01 1.012472931594921889e-02 2.433046254873674208e+00 1.431664565141974599e+01
9.948376736367677831e-01 1.023548185399215590e-02 2.499269140157298619e+00 1.494401992822709957e+01
1.012290966156711214e+00 1.034557784978111517e-02 2.566105246020278674e+00 1.557808534720210503e+01
1.029744258676654312e+00 1.045505822547469765e-02 2.633526194510375618e+00 1.621795986564320557e+01
1.047197551196597631e+00 1.056396276745221775e-02 2.701510059252149265e+00 1.686422725184872107e+01
1.064650843716540951e+00 1.067233031426016721e-02 2.770032580893420526e+00 1.751535612480725490e+01
1.082104136236484271e+00 1.078019887086540708e-02 2.839059891703947791e+00 1.816772892137038653e+01
1.099557428756427591e+00 1.088760561026812929e-02 2.908566754364669826e+00 1.882240826407974055e+01
1.117010721276370910e+00 1.099458688144923715e-02 2.978531367834822863e+00 1.947927834083261800e+01
1.134464013796314230e+00 1.110117835004803891e-02 3.048925608734796011e+00 2.013545798821890997e+01
1.151917306316257550e+00 1.120741511899102719e-02 3.119718015944672462e+00 2.078869212252336141e+01
1.169370598836200648e+00 1.131333173239974094e-02 3.190882625890706592e+00 2.143931061870673460e+01
1.186823891356144189e+00 1.141896217655082382e-02 3.262394381603169524e+00 2.208639298356377978e+01
1.204277183876087287e+00 1.152433996158007401e-02 3.334226903364632122e+00 2.272831285333165141e+01
1.221730476396030607e+00 1.162949826435761592e-02 3.406353720986870393e+00 2.336377129537739705e+01
1.239183768915973927e+00 1.173446994289326605e-02 3.478748023186125415e+00 2.399137931095039633e+01
1.256637061435917246e+00 1.183928753633654504e-02 3.551382861402825775e+00 2.460981130263654748e+01
1.274090353955860566e+00 1.194398329359161459e-02 3.624231204222260416e+00 2.521775897554768520e+01
1.291543646475803886e+00 1.204858931905344183e-02 3.697266009421933841e+00 2.581391478907148951e+01
1.308996938995747206e+00 1.215313761888674703e-02 3.770460272257249112e+00 2.639699168879221958e+01
1.326450231515690303e+00 1.225766010104499017e-02 3.843787062091142737e+00 2.696573600706105012e+01
1.343903524035633845e+00 1.236218857977764395e-02 3.917219546197520774e+00 2.751892743058578006e+01
1.361356816555576943e+00 1.246675487866096520e-02 3.990731003283237044e+00 2.805535378237280497e+01
1.378810109075520263e+00 1.257139093327640580e-02 4.064294826779462078e+00 2.857380932152483055e+01
1.396263401595463582e+00 1.267612879564740738e-02 4.137884524582428725e+00 2.907312263343497349e+01
1.413716694115406902e+00 1.278100063426216258e-02 4.211473695676954065e+00 2.955215265079366915e+01
1.431169986635350000e+00 1.288603878120045745e-02 4.285036062020794567e+00 3.000980137017414506e+01
1.448623279155293542e+00 1.299127587843651455e-02 4.358545299302430287e+00 3.044490479345959955e+01
1.466076571675236861e+00 1.309674490614580813e-02 4.431975358717461511e+00 3.085647236775459845e+01
1.483529864195180181e+00 1.320247918270506075e-02 4.505296071084054610e+00 3.124166808567363418e+01
1.500983156715123279e+00 1.330851237993991958e-02 4.578479750559283801e+00 3.160048015967987922e+01
1.518436449235066599e+00 1.341487866856863782e-02 4.651500207016684207e+00 3.193254862108145176e+01
1.535889741755009918e+00 1.352161279885302943e-02 4.724331194448101456e+00 3.223689600766972063e+01
1.553343034274953460e+00 1.362875010145765328e-02 4.796946441623875401e+00 3.251262100866362914e+01
1.570796326794896558e+00 1.373632649202038460e-02 4.869319604774260846e+00 3.275886654536874687e+01
1.588249619314839878e+00 1.384437859718902313e-02 4.941424251513167221e+00 3.297479947163793668e+01
1.605702911834782975e+00 1.395294389350324599e-02 5.013233835820060769e+00 3.315960532558631968e+01
1.623156204354726295e+00 1.406206071454183491e-02 5.084721697398062901e+00 3.331254314471944156e+01
1.640609496874669837e+00 1.417176825318110234e-02 5.155861009675628104e+00 3.343292639470046623e+01
1.658062789394613157e+00 1.428210668520993147e-02 5.226624914612973072e+00 3.352017803771210680e+01
1.675516081914556255e+00 1.439311735439204043e-02 5.296987012902302006e+00 3.357399100330762565e+01
1.692969374434499574e+00 1.450484278764463224e-02 5.366935068993745617e+00 3.360082519406100943e+01
1.710422666954442894e+00 1.461732669942427884e-02 5.436479841738653285e+00 3.361180715928861673e+01
1.727875959474386436e+00 1.473061415594808729e-02 5.505633526645564046e+00 3.360785543230502270e+01
1.745329251994329534e+00 1.484475178495892229e-02 5.574408036472775940e+00 3.358902612642258134e+01
1.762782544514272853e+00 1.495978778939153347e-02 5.642815402843867290e+00 3.355559353184097660e+01
1.780235837034215951e+00 1.507577197086706032e-02 5.710867644681346889e+00 3.350778883064322144e+01
1.797689129554159271e+00 1.519275600298011439e-02 5.778576820260796332e+00 3.344581866901769018e+01
1.815142422074102813e+00 1.531079360769065784e-02 5.845955010137186214e+00 3.336986273550426318e+01
1.832595714594046132e+00 1.542994055853923532e-02 5.913014323135121764e+00 3.328013645605837212e+01
1.850049007113989230e+00 1.555025482327776487e-02 5.979766900298559840e+00 3.317685166418339548e+01
1.867502299633932550e+00 1.567179693999683904e-02 6.046224894395019867e+00 3.306014319845329652e+01
1.884955592153875870e+00 1.579463007840107083e-02 6.112400529113625858e+00 3.293020026381614684e+01
1.902408884673818967e+00 1.591882010881350354e-02 6.178305962222477632e+00 3.278716729249696016e+01
1.919862177193762509e+00 1.604443605606318754e-02 6.243952846410434354e+00 3.263089268185234459e+01
1.937315469713705829e+00 1.617155028286948112e-02 6.309352676916911484e+00 3.246140153176988719e+01
1.954768762233649149e+00 1.630023855141041200e-02 6.374517633411991291e+00 3.227917890015640268e+01
1.972222054753592246e+00 1.643058054934745660e-02 6.439460039607264541e+00 3.208436545313587374e+01
1.989675347273535566e+00 1.656266015840662797e-02 6.504192261502826256e+00 3.187704897993653930e+01
2.007128639793478886e+00 1.669656557617904546e-02 6.568726506343127269e+00 3.165725567353702985e+01
2.024581932313422428e+00 1.683238999395755137e-02 6.633074335868593963e+00 3.142468368907446674e+01
2.042035224833365525e+00 1.697023183746747266e-02 6.697247408420095915e+00 3.117942512173143399e+01
2.059488517353308623e+00 1.711019513709149606e-02 6.761257928541397177e+00 3.092179434485998257e+01
2.076941809873252165e+00 1.725239030150948691e-02 6.825118535331756497e+00 3.065197138498938756e+01
2.094395102393195263e+00 1.739693432226408973e-02 6.888841401910066331e+00 3.036975996940898170e+01
2.111848394913138804e+00 1.754395168782636391e-02 6.952437713070355407e+00 3.007463713092205637e+01
2.129301687433081902e+00 1.769357487622053027e-02 7.015919477614103172e+00 2.976697349627904288e+01
2.146754979953025444e+00 1.784594516568552974e-02 7.079299318539597152e+00 2.944700480969167700e+01
2.164208272472968542e+00 1.800121351622761476e-02 7.142589474972919739e+00 2.911447204995613447e+01
2.181661564992911639e+00 1.815954143670265447e-02 7.205801413441766279e+00 2.876894196542008686e+01
2.199114857512855181e+00 1.832110220053871988e-02 7.268946988020958067e+00 2.841047685377438725e+01
2.216568150032798723e+00 1.848608185197240725e-02 7.332038833235935193e+00 2.803932819331140536e+01
2.234021442552741821e+00 1.865468051385031287e-02 7.395089233180124566e+00 2.765522149355064485e+01
2.251474735072684918e+00 1.882711447984178679e-02 7.458109321768767508e+00 2.725743199485977186e+01
2.268928027592628460e+00 1.900361771579247780e-02 7.521111283991236185e+00 2.684623692210214685e+01
2.286381320112572002e+00 1.918444154571366522e-02 7.584107720726272817e+00 2.642194684343746403e+01
2.303834612632515100e+00 1.936986227129581725e-02 7.647110660180121755e+00 2.598363523859420354e+01
2.321287905152458197e+00 1.956018496507026111e-02 7.710131428530601738e+00 2.553024009238946590e+01
2.338741197672401295e+00 1.975569989022700479e-02 7.773182594834174175e+00 2.506756085766883047e+01
2.356194490192344837e+00 1.995663871451451923e-02 7.836276613562004556e+00 2.460560746115922015e+01
2.373647782712288379e+00 2.016310026025001922e-02 7.899424511063456222e+00 2.416101495162445190e+01
2.391101075232231477e+00 2.037501377050731505e-02 7.962638708751926586e+00 2.375270065819594123e+01
2.408554367752174574e+00 2.059230780317397938e-02 8.025931653635907992e+00 2.337776346465303234e+01
2.426007660272118116e+00 2.081492592922088228e-02 8.089314942477335180e+00 2.303169982754651812e+01
2.443460952792061214e+00 2.104281017615836080e-02 8.152800644244837969e+00 2.271268318131860298e+01
2.460914245312004311e+00 2.127590538878881138e-02 8.216401020544541467e+00 2.241857268704968575e+01
2.478367537831947853e+00 2.151414767251994681e-02 8.280128127047785114e+00 2.214840282543475070e+01
2.495820830351891395e+00 2.175743854670744021e-02 8.343993681958675523e+00 2.190356660318335358e+01
2.513274122871834493e+00 2.200570478341291880e-02 8.408009918507422853e+00 2.168032024773134836e+01
2.530727415391777591e+00 2.225888779420090099e-02 8.472189177111212999e+00 2.147611794510912731e+01
2.548180707911721132e+00 2.251692783565612671e-02 8.536542926868087022e+00 2.128966280606471884e+01
2.565634000431664674e+00 2.277976987960932120e-02 8.601083393820118772e+00 2.111983038107052835e+01
2.583087292951607772e+00 2.304735016675095102e-02 8.665823078113280786e+00 2.096651648783404553e+01
2.600540585471550870e+00 2.331956983401399161e-02 8.730773368538290669e+00 2.083120119949141724e+01
2.617993877991494411e+00 2.359635926669179443e-02 8.795946410859658116e+00 2.071099977139434145e+01
2.635447170511437509e+00 2.387766008780760341e-02 8.861354756603008198e+00 2.060450991132231380e+01
2.652900463031380607e+00 2.416342009370396268e-02 8.927009940430076895e+00 2.051037467004998760e+01
2.670353755551324149e+00 2.445357681242277606e-02 8.992923927752901392e+00 2.042894186239639609e+01
2.687807048071267690e+00 2.474803764626748101e-02 9.059109156384559824e+00 2.036193414539739166e+01
2.705260340591210788e+00 2.504672938745864177e-02 9.125577592038878194e+00 2.030731966561917190e+01
2.722713633111153886e+00 2.534959998801914263e-02 9.192340996364061212e+00 2.026317435563085922e+01
2.740166925631096984e+00 2.565659207978892437e-02 9.259411375904837982e+00 2.022958414745919598e+01
2.757620218151040525e+00 2.596762592573273465e-02 9.326801401397176505e+00 2.020787745124278345e+01
2.775073510670984067e+00 2.628261882781867190e-02 9.394522913203674719e+00 2.019763906328800473e+01
2.792526803190927165e+00 2.660152566981723032e-02 9.462586990298534673e+00 2.019593704507008880e+01
2.809980095710870263e+00 2.692429057341130458e-02 9.531006674402615175e+00 2.020382199536289036e+01
2.827433388230813804e+00 2.725080318793092829e-02 9.599794633465711158e+00 2.022434205895808645e+01
2.844886680750756902e+00 2.758101713834589658e-02 9.668961408056578222e+00 2.025265357197711680e+01
2.862339973270700000e+00 2.791488571990533019e-02 9.738518906003450937e+00 2.028903126032333049e+01
2.879793265790643542e+00 2.825230486335077174e-02 9.808480027293228432e+00 2.033708739376206154e+01
2.897246558310587083e+00 2.859320867469920119e-02 9.878855254865326785e+00 2.039363197387035243e+01
2.914699850830530625e+00 2.893755288591796232e-02 9.949640105810706459e+00 2.045290058332212979e+01
2.932153143350473723e+00 2.928527148896423182e-02 1.002081358920779053e+01 2.051130435267033647e+01
2.949606435870416821e+00 2.963628824303590759e-02 1.009235642773169772e+01 2.056983941249393055e+01
2.967059728390360362e+00 2.999052570882107874e-02 1.016425259219558086e+01 2.062940390568784821e+01
2.984513020910303460e+00 3.034791430054117195e-02 1.023648431036291662e+01 2.068893263133546867e+01
3.001966313430246558e+00 3.070839163508590902e-02 1.030903224362700321e+01 2.074746208863647468e+01
3.019419605950190100e+00 3.107189688529417640e-02 1.038187747285200047e+01 2.080493318493871513e+01
3.036872898470133197e+00 3.143836675431809641e-02 1.045500175169040524e+01 2.086159130579743248e+01
3.054326190990076295e+00 3.180772837815749876e-02 1.052838708049758232e+01 2.091795946964669994e+01
3.071779483510019837e+00 3.217990214763966766e-02 1.060201547948994794e+01 2.097432677572165360e+01
3.089232776029963379e+00 3.255481537191873276e-02 1.067586898265606443e+01 2.103020839629714445e+01
3.106686068549906921e+00 3.293240498130229482e-02 1.074992957692468210e+01 2.108495978246285318e+01
3.124139361069850018e+00 3.331261063541888362e-02 1.082417915467272884e+01 2.113831614553616944e+01
3.141592653589793116e+00 3.369536897530684555e-02 1.089859951246472747e+01 2.119033318481641359e+01
3.159045946109736214e+00 3.408061359151808717e-02 1.097317235105277433e+01 2.124106544516085293e+01
3.176499238629679756e+00 3.446827658346425516e-02 1.104787927537655889e+01 2.129047905296258847e+01
3.193952531149622853e+00 3.485828951376732793e-02 1.112270179456335484e+01 2.133848659289336425e+01
3.211405823669565951e+00 3.525058342199689082e-02 1.119762132192801651e+01 2.138499934483794362e+01
3.228859116189509493e+00 3.564508894977461845e-02 1.127261918981364452e+01 2.142992544324903648e+01
3.246312408709452590e+00 3.604173688238749423e-02 1.134767672680959194e+01 2.147316538699438127e+01
3.263765701229396576e+00 3.644045829532380210e-02 1.142277534401364747e+01 2.151463666449793521e+01
3.281218993749339674e+00 3.684118455427561056e-02 1.149789655288740420e+01 2.155426227414208995e+01
3.298672286269282772e+00 3.724384731513879360e-02 1.157302196525627558e+01 2.159196558504919494e+01
3.316125578789226314e+00 3.764837852401300977e-02 1.164813329445792611e+01 2.162767062891245828e+01
3.333578871309169411e+00 3.805471041720170922e-02 1.172321257896772906e+01 2.166136666452821657e+01
3.351032163829112509e+00 3.846277552121212667e-02 1.179824267192622678e+01 2.169318659502260971e+01
3.368485456349056051e+00 3.887250665275529538e-02 1.187320679609674201e+01 2.172313695599748939e+01
3.385938748868999149e+00 3.928383560517046541e-02 1.194808497738544162e+01 2.175025287513561167e+01
3.403392041388942246e+00 3.969668971772995908e-02 1.202285487693392696e+01 2.177397836396294650e+01
3.420845333908885788e+00 4.011099785649234473e-02 1.209750203412748348e+01 2.179643727705779810e+01
3.438298626428828886e+00 4.052669223790960479e-02 1.217201150702219792e+01 2.181723405460894583e+01
