# angles(rad), pulling distance(m),                                     elastic band force(n), cable force(n)
0.000000000000000000e+00 3.366922619468369778e-04 2.434615675069396953e-02 1.760466204664226306e-02
1.745329251994329547e-02 6.637765847528196610e-04 4.911797381417725566e-02 3.719962642708188327e-02
3.490658503988659095e-02 9.818709502776171508e-04 7.433870792475159861e-02 5.894089898765111912e-02
5.235987755982988295e-02 1.291219762024630163e-03 1.000328764524750363e-01 8.308619552690588161e-02
6.981317007977318190e-02 1.592067909945807901e-03 1.262267268387400332e-01 1.099014243700168619e-01
8.726646259971647390e-02 1.884575244300186079e-03 1.529483811981772190e-01 1.397241469597346464e-01
1.047197551196597659e-01 2.168988297082993788e-03 1.802280275133595067e-01 1.728667794442583505e-01
1.221730476396030718e-01 2.445476754977543403e-03 2.080981373049033134e-01 2.097634736100043029e-01
1.396263401595463638e-01 2.714266561212987441e-03 2.365937115555062364e-01 2.508232648134793297e-01
1.570796326794896558e-01 2.975571359335773148e-03 2.657525661167918773e-01 2.965517847493465697e-01
1.745329251994329478e-01 3.229569506903381092e-03 2.956129252095442417e-01 3.475264754388173727e-01
1.919862177193762398e-01 3.476478284828836158e-03 3.261933201288150230e-01 4.040002398205108647e-01
2.094395102393195318e-01 3.716511240385393048e-03 3.575042109828055481e-01 4.663432695718785492e-01
2.268928027592628516e-01 3.949874827848304584e-03 3.895587909964987605e-01 5.350939095423110636e-01
2.443460952792061436e-01 4.176771822092666640e-03 4.223702672034308492e-01 6.107878166925199137e-01
2.617993877991494078e-01 4.397404307907558547e-03 4.559518060366017367e-01 6.939849870213027350e-01
2.792526803190927276e-01 4.611974529687627548e-03 4.903165116834518056e-01 7.852712486387177782e-01
2.967059728390360474e-01 4.820685057783972820e-03 5.254774362653827913e-01 8.852582892945662918e-01
3.141592653589793116e-01 5.023740641018285824e-03 5.614476224048400299e-01 9.945737597450686751e-01
3.316125578789225758e-01 5.221360454913719952e-03 5.982401860653309145e-01 1.113794699843153602e+00
3.490658503988658956e-01 5.413848823875755563e-03 6.358684400263858727e-01 1.243016358658626030e+00
3.665191429188092154e-01 5.601517418077218979e-03 6.743459680979175808e-01 1.382605652683548625e+00
3.839724354387524796e-01 5.784655879885118417e-03 7.136849301627880005e-01 1.533027203395053828e+00
4.014257279586957439e-01 5.963530975212863461e-03 7.538974942522835843e-01 1.694822370268098233e+00
4.188790204786390636e-01 6.138388742974252264e-03 7.949988824258572562e-01 1.868693514876124340e+00
4.363323129985823834e-01 6.309456632824978796e-03 8.370000296178197186e-01 2.055029817362631572e+00
4.537856055185257032e-01 6.476945381361212152e-03 8.799163733358918993e-01 2.254646586786893003e+00
4.712388980384689674e-01 6.641050649759958416e-03 9.237581186041732284e-01 2.467877388734718735e+00
4.886921905584122872e-01 6.801954473837693721e-03 9.685398425598897854e-01 2.695578188910909390e+00
5.061454830783556069e-01 6.959826543643116321e-03 1.014275038658289052e+00 2.938332780961319557e+00
5.235987755982988157e-01 7.114825336460350869e-03 1.060976338074518743e+00 3.196732873679744014e+00
5.410520681182421354e-01 7.267099125373447689e-03 1.108656251465210962e+00 3.471420421545998725e+00
5.585053606381854552e-01 7.416786879011047842e-03 1.157328291530402176e+00 3.763135433932903950e+00
5.759586531581287749e-01 7.564019066099616183e-03 1.207007946600475501e+00 4.072732983167415277e+00
5.934119456780720947e-01 7.708918376692666143e-03 1.257703181395637859e+00 4.400266490055513735e+00
6.108652381980153034e-01 7.851600370327177156e-03 1.309431095510435128e+00 4.747210038381858510e+00
6.283185307179586232e-01 7.992174059924675791e-03 1.362205330093499533e+00 5.113997067765233773e+00
6.457718232379019430e-01 8.130742438910964695e-03 1.416037151742240985e+00 5.501100608828109806e+00
6.632251157578451517e-01 8.267402958093575047e-03 1.470937158893568242e+00 5.909128768529165576e+00
6.806784082777884715e-01 8.402247957395414524e-03 1.526916585404557436e+00 6.338827188521420020e+00
6.981317007977317912e-01 8.535365058053029017e-03 1.583990355631611058e+00 6.791336436308996305e+00
7.155849933176750000e-01 8.666837523722771899e-03 1.642131386575543583e+00 7.261992940843094324e+00
7.330382858376184307e-01 8.796744581690189510e-03 1.701312208757381761e+00 7.750545418980586021e+00
7.504915783575616395e-01 8.925161738444504361e-03 1.761507902208762522e+00 8.257089034949375517e+00
7.679448708775049592e-01 9.052161024527242625e-03 1.822691110464480069e+00 8.781001314034170946e+00
7.853981633974482790e-01 9.177811205865074248e-03 1.884835326619352269e+00 9.322040979697845842e+00
8.028514559173914877e-01 9.302178344321589826e-03 1.947914306587812616e+00 9.879816248123370670e+00
8.203047484373349185e-01 9.425325236339172214e-03 2.011901693569342342e+00 1.045388398570668187e+01
8.377580409572781273e-01 9.547311807035451653e-03 2.076771018048471085e+00 1.104373475454579889e+01
8.552113334772214470e-01 9.668199488683332232e-03 2.142495697794776444e+00 1.164840301971895720e+01
8.726646259971647668e-01 9.788039641322370324e-03 2.209049038348202210e+00 1.226797444018904315e+01
8.901179185171079755e-01 9.906869355686576117e-03 2.276404498646125152e+00 1.290319291356975384e+01
9.075712110370514063e-01 1.002473785150275430e-02 2.344536396027519398e+00 1.355219747524481733e+01
9.250245035569946150e-01 1.014169637882005384e-02 2.413419991952473698e+00 1.421401682596855487e+01
9.424777960769379348e-01 1.025779385077951918e-02 2.483030193693035237e+00 1.488785498888598013e+01
9.599310885968812546e-01 1.037307756887435352e-02 2.553339796460653677e+00 1.557239042830138942e+01
9.773843811168245743e-01 1.048759350172114371e-02 2.624321010134320620e+00 1.626651294172808448e+01
9.948376736367677831e-01 1.060138629304734244e-02 2.695948789523407108e+00 1.696986451335923718e+01
1.012290966156711214e+00 1.071449926880495285e-02 2.768198330351114400e+00 1.768153096038036409e+01
1.029744258676654312e+00 1.082697453905511961e-02 2.841041872769451526e+00 1.839973833457366936e+01
1.047197551196597631e+00 1.093885314743868464e-02 2.914453951305729706e+00 1.912395277836250074e+01
1.064650843716540951e+00 1.105017511252657375e-02 2.988409693955314417e+00 1.985323005061907864e+01
1.082104136236484271e+00 1.116097954367382440e-02 3.062878484070349572e+00 2.058481349676161543e+01
1.099557428756427591e+00 1.127130467578267743e-02 3.137835095948288799e+00 2.131894002101972063e+01
1.117010721276370910e+00 1.138118796329579303e-02 3.213256454899519277e+00 2.205505259008651109e+01
1.134464013796314230e+00 1.149066615291308852e-02 3.289117295025605792e+00 2.279131598230840083e+01
1.151917306316257550e+00 1.159977532370622989e-02 3.365391222893789891e+00 2.352612576168098713e+01
1.169370598836200648e+00 1.170855098820929377e-02 3.442047461523081608e+00 2.425675014620858150e+01
1.186823891356144189e+00 1.181702811525096354e-02 3.519060455841533486e+00 2.498345875143869677e+01
1.204277183876087287e+00 1.192524121159964194e-02 3.596404789550712078e+00 2.570497856377948054e+01
1.221730476396030607e+00 1.203322437885725495e-02 3.674054583752472070e+00 2.641981982560356101e+01
1.239183768915973927e+00 1.214101134500743251e-02 3.751983967204925108e+00 2.712663763820805585e+01
1.256637061435917246e+00 1.224863555469242471e-02 3.830167015845530099e+00 2.782404953104586909e+01
1.274090353955860566e+00 1.235613018929060045e-02 3.908577904026467653e+00 2.851073136112622208e+01
1.291543646475803886e+00 1.246352823309117980e-02 3.987190800238351596e+00 2.918531897453641832e+01
1.308996938995747206e+00 1.257086253348483826e-02 4.065980203354168765e+00 2.984657766697775116e+01
1.326450231515690303e+00 1.267816582198666615e-02 4.144916191429008911e+00 3.049142851314197245e+01
1.343903524035633845e+00 1.278547080008316135e-02 4.223972361644143803e+00 3.111981232649535656e+01
1.361356816555576943e+00 1.289281016477966842e-02 4.303122969063251979e+00 3.173065144958467698e+01
1.378810109075520263e+00 1.300021665961307443e-02 4.382342543586784878e+00 3.232274847603920875e+01
1.396263401595463582e+00 1.310772314620929288e-02 4.461605834600008258e+00 3.289490456352052661e+01
1.413716694115406902e+00 1.321536262045435763e-02 4.540887687878459644e+00 3.344590764208547995e+01
1.431169986635350000e+00 1.332316829502751612e-02 4.620163370946057668e+00 3.397470574400012566e+01
1.448623279155293542e+00 1.343117363768969556e-02 4.699404172560757154e+00 3.447834566017039748e+01
1.466076571675236861e+00 1.353941241233353257e-02 4.778580519725033504e+00 3.495517677719194438e+01
1.483529864195180181e+00 1.364791876409813219e-02 4.857667840034777029e+00 3.540621596573754459e+01
1.500983156715123279e+00 1.375672723773946511e-02 4.936641304604663105e+00 3.583026708457991560e+01
1.518436449235066599e+00 1.386587286205662878e-02 5.015476091686023707e+00 3.622627954839123277e+01
1.535889741755009918e+00 1.397539120202011091e-02 5.094147662377192631e+00 3.659337769962447595e+01
1.553343034274953460e+00 1.408531840143279444e-02 5.172626389691456161e+00 3.692817956829670578e+01
1.570796326794896558e+00 1.419569128228133012e-02 5.250883535293237259e+00 3.723008353141937476e+01
1.588249619314839878e+00 1.430654736951568473e-02 5.328894385681242518e+00 3.750011325729244760e+01
1.605702911834782975e+00 1.441792499241799537e-02 5.406633744604303793e+00 3.773722497255863573e+01
1.623156204354726295e+00 1.452986334275867958e-02 5.484077066585120619e+00 3.794098668977794375e+01
1.640609496874669837e+00 1.464240254099390820e-02 5.561205267413541264e+00 3.811345410659482269e+01
1.658062789394613157e+00 1.475558374603021423e-02 5.638018638764599189e+00 3.826388129059878196e+01
1.675516081914556255e+00 1.486944919533286259e-02 5.714523875757020477e+00 3.839540493548750533e+01
1.692969374434499574e+00 1.498404234238570436e-02 5.790726355000817449e+00 3.850733802344901591e+01
1.710422666954442894e+00 1.509940790757772176e-02 5.866633121516875882e+00 3.860052606244846629e+01
1.727875959474386436e+00 1.521559200989064213e-02 5.942251087731972525e+00 3.867490758619650393e+01
1.745329251994329534e+00 1.533264225690149710e-02 6.017587161855133537e+00 3.873049430011489846e+01
1.762782544514272853e+00 1.545060785968463760e-02 6.092648199724669311e+00 3.876727507475191459e+01
1.780235837034215951e+00 1.556953976735882088e-02 6.167441030852566008e+00 3.878524985704490291e+01
1.797689129554159271e+00 1.568949077285454810e-02 6.241972459846486743e+00 3.878442913007769732e+01
1.815142422074102813e+00 1.581051568599374166e-02 6.316249274639745614e+00 3.876481836602516751e+01
1.832595714594046132e+00 1.593267144461449694e-02 6.390278252415152238e+00 3.872644008502106772e+01
1.850049007113989230e+00 1.605601731900295134e-02 6.464066165762581306e+00 3.866930746375947336e+01
1.867502299633932550e+00 1.618061504317356777e-02 6.537619788400168552e+00 3.859345120987489963e+01
1.884955592153875870e+00 1.630652904561566072e-02 6.610945900625065264e+00 3.849889222963034285e+01
1.902408884673818967e+00 1.643382661644945605e-02 6.684051294563854384e+00 3.838566594755780415e+01
1.919862177193762509e+00 1.656257815883251452e-02 6.756942778859952092e+00 3.825380102939278970e+01
1.937315469713705829e+00 1.669285741299139994e-02 6.829627184136061402e+00 3.810333374576023857e+01
1.954768762233649149e+00 1.682474171972977300e-02 6.902111364927534076e+00 3.793430017498174323e+01
1.972222054753592246e+00 1.695831232538450375e-02 6.974402211011376806e+00 3.774673583994357529e+01
1.989675347273535566e+00 1.709365465883416063e-02 7.046506634444392070e+00 3.754067815614549630e+01
2.007128639793478886e+00 1.723085871945472317e-02 7.118431183676558582e+00 3.731594763379786173e+01
2.024581932313422428e+00 1.737001941838918831e-02 7.190181641193907680e+00 3.707216378896310971e+01
2.042035224833365525e+00 1.751123700223055149e-02 7.261764840628809559e+00 3.680988915799783001e+01
2.059488517353308623e+00 1.765461752684754221e-02 7.333187796114113866e+00 3.652922507616283809e+01
2.076941809873252165e+00 1.780027333475287660e-02 7.404457520841353890e+00 3.623018243171419073e+01
2.094395102393195263e+00 1.794832362148403998e-02 7.475581028815753371e+00 3.591276711822351331e+01
2.111848394913138804e+00 1.809889506737185835e-02 7.546565624827373142e+00 3.557712479912394343e+01
2.129301687433081902e+00 1.825212251239548972e-02 7.617418274288836777e+00 3.522308074159315083e+01
2.146754979953025444e+00 1.840814971747790907e-02 7.688144136708017662e+00 3.484973176212608337e+01
2.164208272472968542e+00 1.856713022585992565e-02 7.758749972295244213e+00 3.445787351427551215e+01
2.181661564992911639e+00 1.872922832570677112e-02 7.829243034456164096e+00 3.404773507044984626e+01
2.199114857512855181e+00 1.889462012305154898e-02 7.899630930915035876e+00 3.361946680278406063e+01
2.216568150032798723e+00 1.906349475287994616e-02 7.969920720361425737e+00 3.317277733830629671e+01
2.234021442552741821e+00 1.923605574834880844e-02 8.040117643611646159e+00 3.270678403412391333e+01
2.251474735072684918e+00 1.941252259389051119e-02 8.110228335489622964e+00 3.222212751319177215e+01
2.268928027592628460e+00 1.959313248678880987e-02 8.180260648286212799e+00 3.171933515297578765e+01
2.286381320112572002e+00 1.977814236179716370e-02 8.250221767630371517e+00 3.119805089727825376e+01
2.303834612632515100e+00 1.996783115915492374e-02 8.320117380304370869e+00 3.065756702116414090e+01
2.321287905152458197e+00 2.016250251423104892e-02 8.389953875416031437e+00 3.009816069644316983e+01
2.338741197672401295e+00 2.036248836548666674e-02 8.459739319054840223e+00 2.952042145693214792e+01
2.356194490192344837e+00 2.056814833177337057e-02 8.529481004554895662e+00 2.892446169465422301e+01
2.373647782712288379e+00 2.077986990387071728e-02 8.599183353160681165e+00 2.830997662965939554e+01
2.391101075232231477e+00 2.099784923197930281e-02 8.668854274376094793e+00 2.770753852755744617e+01
2.408554367752174574e+00 2.122202505093096284e-02 8.738501554307166685e+00 2.714890779822146527e+01
2.426007660272118116e+00 2.145230472438049846e-02 8.808130047994628953e+00 2.663269485569852435e+01
2.443460952792061214e+00 2.168854787714835641e-02 8.877747697570628205e+00 2.616151710610271053e+01
2.460914245312004311e+00 2.193069134031153458e-02 8.947362011388323211e+00 2.572295195437823168e+01
2.478367537831947853e+00 2.217856712557297882e-02 9.016977832840346707e+00 2.532414847161310689e+01
2.495820830351891395e+00 2.243213464551565076e-02 9.086602603599907013e+00 2.495006550530999689e+01
2.513274122871834493e+00 2.269120887987692223e-02 9.156244318701304508e+00 2.461288980796919645e+01
2.530727415391777591e+00 2.295575901087837031e-02 9.225908748228588863e+00 2.429474018338723340e+01
2.548180707911721132e+00 2.322559747807877509e-02 9.295602073516308295e+00 2.400849018215133057e+01
2.565634000431664674e+00 2.350068751913927251e-02 9.365331420182901212e+00 2.373907971106259396e+01
2.583087292951607772e+00 2.378085692780974522e-02 9.435104015682659551e+00 2.349691563787615678e+01
2.600540585471550870e+00 2.406604332595242701e-02 9.504926970291263544e+00 2.327116891713417246e+01
2.617993877991494411e+00 2.435611359200885034e-02 9.574807144215641941e+00 2.306645205751697603e+01
2.635447170511437509e+00 2.465095445724390863e-02 9.644750950604070283e+00 2.287982002141613336e+01
2.652900463031380607e+00 2.495049902679727719e-02 9.714764506817170187e+00 2.270664468760749344e+01
2.670353755551324149e+00 2.525456971224549277e-02 9.784854448724201958e+00 2.255462011633582975e+01
2.687807048071267690e+00 2.556311026282945958e-02 9.855027853338585331e+00 2.241393734889754086e+01
2.705260340591210788e+00 2.587600578895231720e-02 9.925291657578661386e+00 2.228823015449377820e+01
2.722713633111153886e+00 2.619311102033160255e-02 9.995652651022531643e+00 2.217888514758064389e+01
2.740166925631096984e+00 2.651434705493520283e-02 1.006611760634642394e+01 2.208060276586068582e+01
2.757620218151040525e+00 2.683962536085034156e-02 1.013669336035137469e+01 2.199362097054278209e+01
2.775073510670984067e+00 2.716879800374488035e-02 1.020738692867091046e+01 2.192152418441206407e+01
2.792526803190927165e+00 2.750175492073361760e-02 1.027820530585818481e+01 2.186126141308347925e+01
2.809980095710870263e+00 2.783839723161967566e-02 1.034915502526041919e+01 2.181156739210298312e+01
2.827433388230813804e+00 2.817862119485700298e-02 1.042024228315453627e+01 2.177231854727041949e+01
2.844886680750756902e+00 2.852231947733598755e-02 1.049147354484846772e+01 2.174351562765662393e+01
2.862339973270700000e+00 2.886938211657012060e-02 1.056285565659912784e+01 2.172515441446881823e+01
2.879793265790643542e+00 2.921969764958354948e-02 1.063439571255421789e+01 2.171714333590588097e+01
2.897246558310587083e+00 2.957315434177255897e-02 1.070610093438967780e+01 2.171930421627783758e+01
2.914699850830530625e+00 2.992964118052877931e-02 1.077797544338714530e+01 2.173044299988747596e+01
2.932153143350473723e+00 3.028905002611414002e-02 1.085001529667648867e+01 2.174775383968807674e+01
2.949606435870416821e+00 3.065127341364980856e-02 1.092220853026248228e+01 2.176859857296049583e+01
2.967059728390360362e+00 3.101621597801026281e-02 1.099454038294517666e+01 2.179125026664868869e+01
2.984513020910303460e+00 3.138377351347224065e-02 1.106699657957368110e+01 2.181624379564716065e+01
3.001966313430246558e+00 3.175379645253711969e-02 1.113956337967823984e+01 2.184627988383829944e+01
3.019419605950190100e+00 3.212619609850381197e-02 1.121222736778460671e+01 2.187771027503769972e+01
3.036872898470133197e+00 3.250088467429760458e-02 1.128497507912756426e+01 2.191035869800981573e+01
3.054326190990076295e+00 3.287772426200336745e-02 1.135779296091591917e+01 2.194701544600808418e+01
3.071779483510019837e+00 3.325660080641348187e-02 1.143066737233250052e+01 2.198613688673669131e+01
3.089232776029963379e+00 3.363742071039167725e-02 1.150358458453416510e+01 2.202640433096432560e+01
3.106686068549906921e+00 3.402007781818319060e-02 1.157653078065179209e+01 2.206842281229130975e+01
3.124139361069850018e+00 3.440445688707969435e-02 1.164949205579028479e+01 2.211259311143875195e+01
3.141592653589793116e+00 3.479044628583218002e-02 1.172245441702857249e+01 2.215858664872420647e+01
3.159045946109736214e+00 3.517793922053042560e-02 1.179540383781925783e+01 2.220602754037869531e+01
3.176499238629679756e+00 3.556683038651166362e-02 1.186832643180054170e+01 2.225479068005583727e+01
3.193952531149622853e+00 3.595701330078811264e-02 1.194120833204912380e+01 2.230487093771904128e+01
3.211405823669565951e+00 3.634838022800844504e-02 1.201403564729351459e+01 2.235625702092619704e+01
3.228859116189509493e+00 3.674082218045778697e-02 1.208679446191403883e+01 2.240894053558939092e+01
3.246312408709452590e+00 3.713422891805770454e-02 1.215947083594283384e+01 2.246291601045013309e+01
3.263765701229396576e+00 3.752848894836621763e-02 1.223205084092977479e+01 2.251819212666483594e+01
3.281218993749339674e+00 3.792348984570474701e-02 1.230452077256802745e+01 2.257482920260879311e+01
3.298672286269282772e+00 3.831911958013104608e-02 1.237686722468714784e+01 2.263283960074412704e+01
3.316125578789226314e+00 3.871526704642659633e-02 1.244907683102396767e+01 2.269212890924819703e+01
3.333578871309169411e+00 3.911182211656171609e-02 1.252113586389567246e+01 2.275247522368320219e+01
3.351032163829112509e+00 3.950867563969554658e-02 1.259303060942467489e+01 2.281377582222415512e+01
3.368485456349056051e+00 3.990571944217609357e-02 1.266474790156023289e+01 2.287610131186739082e+01
3.385938748868999149e+00 4.030284632754018576e-02 1.273627429539321199e+01 2.293926210465332005e+01
3.403392041388942246e+00 4.069995007651349556e-02 1.280759530977340077e+01 2.300282209940461087e+01
3.420845333908885788e+00 4.109692522238552609e-02 1.287869549414885029e+01 2.306637162731684754e+01
3.438298626428828886e+00 4.149366444678430355e-02 1.294956174373285052e+01 2.313073218120704766e+01
