# angles(rad), pulling distance(m),                                     elastic band force(n), cable force(n)
0.000000000000000000e+00 5.180739641053158434e-04 4.081878093474654995e-02 3.216090736920574483e-02
1.745329251994329547e-02 1.035518537198348334e-03 8.136136325256974888e-02 6.374788602845317398e-02
3.490658503988659095e-02 1.552174798701864760e-03 1.215916146386225721e-01 9.467922074751725092e-02
5.235987755982988295e-02 2.067883554290102059e-03 1.614864298292429945e-01 1.249246052935869822e-01
6.981317007977318190e-02 2.582485670339590509e-03 2.010357306119542331e-01 1.545042729144096294e-01
8.726646259971647390e-02 3.095822073929153408e-03 2.402424658254644907e-01 1.834883066697683973e-01
1.047197551196597659e-01 3.607733756572255052e-03 2.791225431887259245e-01 2.119956711473223732e-01
1.221730476396030718e-01 4.118062894534819073e-03 3.176990438263095351e-01 2.401531963402088465e-01
1.396263401595463638e-01 4.626655533418893608e-03 3.559921142568703289e-01 2.680343768614740219e-01
1.570796326794896558e-01 5.133361862228961320e-03 3.940179554706215170e-01 2.956912783244293186e-01
1.745329251994329478e-01 5.638030747692668668e-03 4.317900985154192184e-01 3.231750130873599081e-01
1.919862177193762398e-01 6.140502131856425024e-03 4.693221489406140812e-01 3.505597157341657777e-01
2.094395102393195318e-01 6.640609321754573947e-03 5.066281428920398344e-01 3.779243093505951778e-01
2.268928027592628516e-01 7.138186273441605653e-03 5.437223842267137064e-01 4.053437216331512993e-01
2.443460952792061436e-01 7.633078423850457074e-03 5.806187923418628660e-01 4.328771006748076133e-01
2.617993877991494078e-01 8.125157250389238028e-03 6.173307389745851248e-01 4.605646884541937935e-01
2.792526803190927276e-01 8.614265574933594946e-03 6.538710653118610105e-01 4.884942845995419169e-01
2.967059728390360474e-01 9.100200588820781325e-03 6.902522851041325014e-01 5.167814497582395861e-01
3.141592653589793116e-01 9.582814120323209992e-03 7.264867177333391712e-01 5.454433477605408198e-01
3.316125578789225758e-01 1.006198560345135905e-02 7.625864905293099349e-01 5.745166399650403211e-01
3.490658503988658956e-01 1.053756059755924651e-02 7.985635398014062636e-01 6.041099758036726497e-01
3.665191429188092154e-01 1.100933466695183140e-02 8.344296130574040404e-01 6.343653789073896432e-01
3.839724354387524796e-01 1.147715672989216978e-02 8.701962692912889041e-01 6.652959166596603691e-01
4.014257279586957439e-01 1.194088253227543195e-02 9.058748833423397873e-01 6.969713605584486604e-01
4.188790204786390636e-01 1.240035737018787936e-02 9.414766947345464265e-01 7.294909960332631726e-01
4.363323129985823834e-01 1.285542640441902397e-02 9.770128383359404367e-01 7.629450899064375013e-01
4.537856055185257032e-01 1.330593208284025671e-02 1.012494344836996962e+00 7.974333376776288063e-01
4.712388980384689674e-01 1.375171589598070919e-02 1.047932152612184309e+00 8.330589198403315354e-01
4.886921905584122872e-01 1.419261882274285534e-02 1.083337145476015007e+00 8.699317145924221339e-01
5.061454830783556069e-01 1.462848207047763409e-02 1.118720160178568790e+00 9.081676897825582406e-01
5.235987755982988157e-01 1.505914766111950479e-02 1.154091987270934760e+00 9.478895716184406739e-01
5.410520681182421354e-01 1.548445903240811862e-02 1.189463398060386590e+00 9.892281587566752465e-01
5.585053606381854552e-01 1.590426137857646124e-02 1.224845176183918527e+00 1.032323917552371295e+00
5.759586531581287749e-01 1.631840269016395298e-02 1.260248119404608458e+00 1.077325332366341426e+00
5.934119456780720947e-01 1.672673212280435806e-02 1.295683044639829973e+00 1.124396826319133291e+00
6.108652381980153034e-01 1.712910538249159953e-02 1.331160825797323977e+00 1.173702062104603927e+00
6.283185307179586232e-01 1.752532725085192630e-02 1.366692411000990592e+00 1.225594842850134869e+00
6.457718232379019430e-01 1.791522655602318520e-02 1.402288822730943796e+00 1.280239529442525281e+00
6.632251157578451517e-01 1.829865893891862924e-02 1.437961174644100559e+00 1.337796684568195227e+00
6.806784082777884715e-01 1.867548286267783214e-02 1.473720712322331039e+00 1.398519786476059679e+00
6.981317007977317912e-01 1.904556005359069396e-02 1.509578819322064058e+00 1.462685087245128246e+00
7.155849933176750000e-01 1.940874042028375296e-02 1.545547019627900864e+00 1.530659415602367623e+00
7.330382858376184307e-01 1.976479277503123341e-02 1.581637014803631835e+00 1.603170754888135541e+00
7.504915783575616395e-01 2.011358654597297790e-02 1.617860712816696411e+00 1.680216298875987668e+00
7.679448708775049592e-01 2.045498519248206692e-02 1.654230228805324998e+00 1.762266879807511843e+00
7.853981633974482790e-01 2.078886960773229653e-02 1.690757902179052641e+00 1.849725521287348240e+00
8.028514559173914877e-01 2.111510773762953139e-02 1.727456347581235896e+00 1.943211312434099947e+00
8.203047484373349185e-01 2.143381352423290309e-02 1.764338464340363677e+00 2.041774576418468268e+00
8.377580409572781273e-01 2.174516360215811989e-02 1.801417441527802366e+00 2.145325180728152148e+00
8.552113334772214470e-01 2.204933220180882794e-02 1.838706810272582981e+00 2.254151688916263829e+00
8.726646259971647668e-01 2.234648997624526928e-02 1.876220474670142746e+00 2.368570210087501238e+00
8.901179185171079755e-01 2.263680541957034664e-02 1.913972713428307326e+00 2.488904965797802404e+00
9.075712110370514063e-01 2.292044574867398155e-02 1.951978223703535242e+00 2.615492961541453720e+00
9.250245035569946150e-01 2.319757772498976314e-02 1.990252175543975488e+00 2.748683747353026341e+00
9.424777960769379348e-01 2.346836830299156573e-02 2.028810215666110306e+00 2.888835581839572786e+00
9.599310885968812546e-01 2.373298510426692307e-02 2.067668506711658694e+00 3.036317581962929779e+00
9.773843811168245743e-01 2.399159683301619467e-02 2.106843800158171742e+00 3.191511248013924718e+00
9.948376736367677831e-01 2.424437317968383340e-02 2.146353444650816122e+00 3.354809999893589190e+00
1.012290966156711214e+00 2.449148579497757369e-02 2.186215431317951818e+00 3.526606291268914894e+00
1.029744258676654312e+00 2.473310582766912596e-02 2.226448480054318946e+00 3.707342028274127621e+00
1.047197551196597631e+00 2.496939726520133393e-02 2.267072050921902893e+00 3.897583555476571870e+00
1.064650843716540951e+00 2.520051801628095389e-02 2.308106412827642284e+00 4.097930342407866355e+00
1.082104136236484271e+00 2.542664113055834174e-02 2.349572733703379157e+00 4.308632366398025049e+00
1.099557428756427591e+00 2.564794182272744569e-02 2.391493097153996494e+00 4.530137652969096429e+00
1.117010721276370910e+00 2.586458604281410487e-02 2.433890617004103252e+00 4.763151572017223501e+00
1.134464013796314230e+00 2.607673807798918317e-02 2.476789507735729146e+00 5.008272598936328812e+00
1.151917306316257550e+00 2.628456637743653915e-02 2.520215139442889551e+00 5.265978442747055510e+00
1.169370598836200648e+00 2.648824234671243172e-02 2.564194187237307077e+00 5.536775846242469434e+00
1.186823891356144189e+00 2.668793520825072166e-02 2.608754673282818182e+00 5.821308549514218278e+00
1.204277183876087287e+00 2.688381050152456597e-02 2.653926129819874635e+00 6.120307815346374802e+00
1.221730476396030607e+00 2.707603325346383608e-02 2.699739696836404246e+00 6.434446717695242235e+00
1.239183768915973927e+00 2.726477936509481836e-02 2.746228252929884928e+00 6.764016756617319714e+00
1.256637061435917246e+00 2.745021551912616223e-02 2.793426569339126253e+00 7.109995986185488448e+00
1.274090353955860566e+00 2.763246154951658554e-02 2.841371474651409823e+00 7.475020773694794229e+00
1.291543646475803886e+00 2.781159725933631671e-02 2.890102115695134088e+00 7.862001882336816294e+00
1.308996938995747206e+00 2.798767630895755351e-02 2.939660015579923069e+00 8.273748470406070865e+00
1.326450231515690303e+00 2.816074084762937649e-02 2.990089152647082305e+00 8.712796791247971129e+00
1.343903524035633845e+00 2.833083975870672247e-02 3.041436747352283199e+00 9.181155860165103988e+00
1.361356816555576943e+00 2.849802474787091131e-02 3.093751627323999109e+00 9.680847895190362706e+00
1.378810109075520263e+00 2.866234067051090170e-02 3.147053164225739774e+00 1.020855238309653501e+01
1.396263401595463582e+00 2.882382736306446022e-02 3.201323430232097422e+00 1.075857529706113169e+01
1.413716694115406902e+00 2.898253104314133660e-02 3.256554981033707552e+00 1.133335923817708668e+01
1.431169986635350000e+00 2.913850646798233843e-02 3.312742049553665247e+00 1.193349944178432587e+01
1.448623279155293542e+00 2.929180669589953601e-02 3.369866486267439232e+00 1.255717146960985708e+01
1.466076571675236861e+00 2.944247495103328310e-02 3.427916624238725785e+00 1.320723020350120258e+01
1.483529864195180181e+00 2.959054865730001080e-02 3.486883652851480164e+00 1.388573118826825770e+01
1.500983156715123279e+00 2.973607752796380427e-02 3.546757646161931454e+00 1.459219346728036193e+01
1.518436449235066599e+00 2.987912836581149700e-02 3.607528091153486827e+00 1.532539695100211397e+01
1.535889741755009918e+00 3.001978377467645273e-02 3.669183457350381428e+00 1.608362248790056626e+01
1.553343034274953460e+00 3.015813874333731284e-02 3.731709046445816913e+00 1.686439661113486466e+01
1.570796326794896558e+00 3.029430008578126374e-02 3.795093326992903027e+00 1.766648711175185227e+01
1.588249619314839878e+00 3.042838281721937585e-02 3.859325528533536165e+00 1.848806125150395729e+01
1.605702911834782975e+00 3.056049591048678321e-02 3.924394753945780412e+00 1.932869184542218477e+01
1.623156204354726295e+00 3.069073879713310471e-02 3.990290064589987473e+00 2.018854235630358573e+01
1.640609496874669837e+00 3.081920152876207325e-02 4.057000672240816286e+00 2.106797642032823248e+01
1.658062789394613157e+00 3.094596796651291268e-02 4.124513731360414326e+00 2.196626680732660475e+01
1.675516081914556255e+00 3.107111870527404229e-02 4.192815956159457791e+00 2.288269816171215965e+01
1.692969374434499574e+00 3.119473118184377947e-02 4.261896259561908096e+00 2.381742481425038349e+01
1.710422666954442894e+00 3.131687967144338586e-02 4.331743804227440542e+00 2.476998854731570532e+01
1.727875959474386436e+00 3.143763525083587140e-02 4.402348225984671792e+00 2.574003225634555392e+01
1.745329251994329534e+00 3.155706577615940284e-02 4.473699346415065392e+00 2.672712524463394956e+01
1.762782544514272853e+00 3.167523588262456669e-02 4.545787898005899663e+00 2.773114751343468143e+01
1.780235837034215951e+00 3.179220700288013651e-02 4.618598098629068893e+00 2.874906672896965532e+01
1.797689129554159271e+00 3.190803787042894440e-02 4.692116781448504526e+00 2.978120191163207409e+01
1.815142422074102813e+00 3.202278507263674190e-02 4.766335101812622099e+00 3.082858481450913146e+01
1.832595714594046132e+00 3.213650307904398346e-02 4.841244723137514860e+00 3.189079903956908169e+01
1.850049007113989230e+00 3.224924424136582646e-02 4.916832190342606879e+00 3.296496898617333926e+01
1.867502299633932550e+00 3.236105885005970129e-02 4.993081857899636766e+00 3.404929250275556996e+01
1.884955592153875870e+00 3.247199550598339063e-02 5.069986047657124573e+00 3.514646857077219266e+01
1.902408884673818967e+00 3.258210127040079424e-02 5.147537716644102090e+00 3.625606190660636230e+01
1.919862177193762509e+00 3.269142166539898420e-02 5.225716743059985347e+00 3.737101821708397864e+01
1.937315469713705829e+00 3.280000067388817719e-02 5.304514728900607601e+00 3.849593787190379146e+01
1.954768762233649149e+00 3.290788078680482315e-02 5.383925164074383041e+00 3.963101526900871363e+01
1.972222054753592246e+00 3.301510332799910408e-02 5.463930656491423399e+00 4.076982860470240411e+01
1.989675347273535566e+00 3.312170859097184755e-02 5.544520008818365042e+00 4.191437308200093526e+01
2.007128639793478886e+00 3.322773583935054176e-02 5.625687341034919520e+00 4.306647963977604832e+01
2.024581932313422428e+00 3.333322330688932855e-02 5.707415946051052735e+00 4.421938969632198280e+01
2.042035224833365525e+00 3.343820820351933731e-02 5.789694021719538952e+00 4.537461083523811567e+01
2.059488517353308623e+00 3.354272688906250605e-02 5.872515854506088928e+00 4.653450467834212390e+01
2.076941809873252165e+00 3.364681506863471255e-02 5.955864618720027259e+00 4.769167429347410092e+01
2.094395102393195263e+00 3.375050780305276221e-02 6.039728596851688280e+00 4.884774905495979880e+01
2.111848394913138804e+00 3.385383950883436716e-02 6.124100748866077026e+00 5.000435785186925131e+01
2.129301687433081902e+00 3.395684395819817403e-02 6.208947327642730940e+00 5.114419248961529973e+01
2.146754979953025444e+00 3.405955430645780241e-02 6.294229897133725160e+00 5.226231900584222956e+01
2.164208272472968542e+00 3.416200329489264137e-02 6.379917075217049316e+00 5.336090662609751689e+01
2.181661564992911639e+00 3.426422334183638202e-02 6.465972942219837094e+00 5.443500802396810911e+01
2.199114857512855181e+00 3.436624654311015020e-02 6.552349833269960122e+00 5.547479402767584133e+01
2.216568150032798723e+00 3.446810467202251343e-02 6.639014643015365813e+00 5.648728747304079434e+01
2.234021442552741821e+00 3.456982917936948091e-02 6.725932076410552796e+00 5.746901789142906125e+01
2.251474735072684918e+00 3.467145123410467211e-02 6.813066182245545832e+00 5.841747948627472908e+01
2.268928027592628460e+00 3.477300191291564369e-02 6.900380208002148130e+00 5.932998009135236828e+01
2.286381320112572002e+00 3.487451225541769728e-02 6.987832951161551343e+00 6.020127065440316727e+01
2.303834612632515100e+00 3.497601326416014539e-02 7.075385600557703825e+00 6.103079787118848998e+01
2.321287905152458197e+00 3.507753590462631132e-02 7.163001696088673320e+00 6.181815583314817530e+01
2.338741197672401295e+00 3.517911110523389007e-02 7.250644575263233804e+00 6.256127112192798734e+01
2.356194490192344837e+00 3.528076980709989735e-02 7.338277732639583384e+00 6.325837686412627647e+01
2.373647782712288379e+00 3.538254315170606679e-02 7.425863293226261597e+00 6.390655646565153347e+01
2.391101075232231477e+00 3.548446252512788696e-02 7.513359373816211217e+00 6.450093590665036913e+01
2.408554367752174574e+00 3.558655955803458060e-02 7.600728429075481962e+00 6.504287570604424218e+01
2.426007660272118116e+00 3.568886612568912542e-02 7.687936662379546426e+00 6.553356147608697313e+01
2.443460952792061214e+00 3.579141434807860123e-02 7.774947781005381309e+00 6.596963730032847195e+01
2.460914245312004311e+00 3.589423666481617037e-02 7.861722296456294501e+00 6.634718653789859388e+01
2.478367537831947853e+00 3.599736603538649521e-02 7.948223998148506553e+00 6.666722558942699095e+01
2.495820830351891395e+00 3.610083597225255403e-02 8.034415748253323386e+00 6.692768695781411736e+01
2.513274122871834493e+00 3.620468054085566184e-02 8.120258134257699822e+00 6.712554566818924684e+01
2.530727415391777591e+00 3.630893435961543569e-02 8.205712660169774963e+00 6.726039328701195075e+01
2.548180707911721132e+00 3.641363260443071515e-02 8.290741991379189102e+00 6.733219339068351417e+01
2.565634000431664674e+00 3.651881116566309954e-02 8.375309256130005764e+00 6.734043391867960793e+01
2.583087292951607772e+00 3.662450684222786496e-02 8.459377905644608120e+00 6.728453796550890331e+01
2.600540585471550870e+00 3.673075735362123229e-02 8.542911267026678246e+00 6.716373265080014221e+01
2.617993877991494411e+00 3.683760133992038110e-02 8.625872276422711593e+00 6.697719691678973675e+01
2.635447170511437509e+00 3.694507836178344273e-02 8.708223475452074425e+00 6.672427577430050860e+01
2.652900463031380607e+00 3.705322897022079315e-02 8.789927011207005592e+00 6.640444526573331530e+01
2.670353755551324149e+00 3.716209501453505981e-02 8.870944636252614757e+00 6.601717467253334348e+01
2.687807048071267690e+00 3.727171972725033811e-02 8.951238073106756232e+00 6.556237651049477222e+01
2.705260340591210788e+00 3.738214772411492526e-02 9.030770083161216988e+00 6.504105095143934534e+01
2.722713633111153886e+00 3.749342500410130646e-02 9.109503275168219005e+00 6.445343295055168653e+01
2.740166925631096984e+00 3.760559901143253891e-02 9.187399716242078185e+00 6.379960542062292461e+01
2.757620218151040525e+00 3.771871902202525439e-02 9.264420931859215003e+00 6.307964067734981484e+01
2.775073510670984067e+00 3.783283629206195264e-02 9.340527905858145630e+00 6.229375398121664631e+01
2.792526803190927165e+00 3.794800405830030948e-02 9.415681506869786332e+00 6.144274516494753158e+01
2.809980095710870263e+00 3.806427753831025107e-02 9.489844599263436820e+00 6.052938483963487926e+01
2.827433388230813804e+00 3.818171411351037325e-02 9.562982508037267237e+00 5.955696009413539826e+01
2.844886680750756902e+00 3.830037383911413795e-02 9.635059671847042040e+00 5.852598855686476043e+01
2.862339973270700000e+00 3.842031953223659646e-02 9.706038755467661261e+00 5.743647133256627768e+01
2.879793265790643542e+00 3.854161677189438945e-02 9.775900025019602424e+00 5.630439643041528797e+01
2.897246558310587083e+00 3.866433398081521589e-02 9.844646934013056239e+00 5.515029658814367508e+01
2.914699850830530625e+00 3.878854305511927891e-02 9.912291825609397478e+00 5.398284382775620571e+01
2.932153143350473723e+00 3.891431965665692605e-02 9.978848590000879426e+00 5.280472412065805088e+01
2.949606435870416821e+00 3.904174321461871544e-02 1.004432860729410848e+01 5.161548001207946612e+01
2.967059728390360362e+00 3.917089706107893671e-02 1.010874037654068758e+01 5.041443753732110622e+01
2.984513020910303460e+00 3.930186929847109129e-02 1.017209706410028147e+01 4.920664015125574053e+01
3.001966313430246558e+00 3.943475314143598393e-02 1.023441310913194791e+01 4.799440879730056508e+01
3.019419605950190100e+00 3.956964692304611869e-02 1.029569884984137396e+01 4.677602796823826736e+01
3.036872898470133197e+00 3.970665459899136440e-02 1.035596301848795520e+01 4.555171799960651668e+01
3.054326190990076295e+00 3.984588665548357417e-02 1.041521809342032689e+01 4.432560605015218158e+01
3.071779483510019837e+00 3.998746020434962301e-02 1.047347842842333776e+01 4.310044967962785023e+01
3.089232776029963379e+00 4.013149953597881792e-02 1.053075633585412874e+01 4.187604036750631309e+01
3.106686068549906921e+00 4.027813798377359589e-02 1.058706134131462839e+01 4.065131318544901262e+01
3.124139361069850018e+00 4.042751831646509975e-02 1.064240340790191830e+01 3.942772033218263772e+01
3.141592653589793116e+00 4.057979263509114282e-02 1.069679506930835267e+01 3.820844255246208121e+01
3.159045946109736214e+00 4.073512211050125259e-02 1.075024927388375851e+01 3.699529805309639130e+01
3.176499238629679756e+00 4.089367736163220662e-02 1.080277905159080021e+01 3.578989520376347144e+01
3.193952531149622853e+00 4.105564672077184618e-02 1.085439653045126107e+01 3.459151696529193742e+01
3.211405823669565951e+00 4.122124371777444174e-02 1.090510994151008184e+01 3.339645845732088958e+01
3.228859116189509493e+00 4.139068169890327414e-02 1.095493069369691064e+01 3.221136628744310570e+01
3.246312408709452590e+00 4.156411140434364965e-02 1.100387148851822161e+01 3.105224767534325281e+01
3.263765701229396576e+00 4.174162477485472700e-02 1.105194478571319117e+01 2.993033283838387604e+01
3.281218993749339674e+00 4.192330562829232887e-02 1.109916344837794711e+01 2.884660902971426566e+01
3.298672286269282772e+00 4.210924128399649163e-02 1.114553956053345019e+01 2.779922929442334123e+01
3.316125578789226314e+00 4.229951928155150503e-02 1.119108231273769150e+01 2.678568700613485731e+01
3.333578871309169411e+00 4.249422637634416716e-02 1.123580261586242557e+01 2.580637851774862668e+01
3.351032163829112509e+00 4.269344919867994886e-02 1.127971297134408601e+01 2.486141901292910816e+01
3.368485456349056051e+00 4.289727454702299547e-02 1.132282589011822438e+01 2.394991971620653359e+01
3.385938748868999149e+00 4.310578941183223350e-02 1.136515443441989603e+01 2.307127807951638232e+01
3.403392041388942246e+00 4.331908096725758245e-02 1.140671073504733002e+01 2.222407256257877606e+01
3.420845333908885788e+00 4.353723625759226695e-02 1.144750263438107041e+01 2.140518226113070455e+01
3.438298626428828886e+00 4.376034201577500005e-02 1.148754227258205418e+01 2.061609884743456433e+01
