# angles(rad), pulling distance(m),                                     elastic band force(n), cable force(n)
0.000000000000000000e+00 5.714614155747593880e-04 6.888606861094608014e-02 8.303781006630682471e-02
1.745329251994329547e-02 1.142169951430418561e-03 1.370602532804067186e-01 1.637257975118971143e-01
3.490658503988659095e-02 1.711904782221473995e-03 2.041374695934438377e-01 2.403394081857921361e-01
5.235987755982988295e-02 2.280450116499954921e-03 2.700991269590051758e-01 3.133643879043871427e-01
6.981317007977318190e-02 2.847597054920979111e-03 3.350359312988543392e-01 3.836071614552569176e-01
8.726646259971647390e-02 3.413143590242752670e-03 3.989873543243940834e-01 4.511708141527694393e-01
1.047197551196597659e-01 3.976893875018643054e-03 4.620030805699035237e-01 5.164247440043178150e-01
1.221730476396030718e-01 4.538648065467199531e-03 5.241297725173242883e-01 5.796565378827815973e-01
1.396263401595463638e-01 5.098194893876526954e-03 5.854098196303565427e-01 6.411249158423791839e-01
1.570796326794896558e-01 5.655313276537502452e-03 6.458843524413605541e-01 7.010997245732263350e-01
1.745329251994329478e-01 6.209779022825371274e-03 7.055922684364052122e-01 7.598204969848775248e-01
1.919862177193762398e-01 6.761369596598636525e-03 7.645704489940894355e-01 8.175080600340132175e-01
2.094395102393195318e-01 7.309877606330146896e-03 8.228540645332947934e-01 8.743520439310730197e-01
2.268928027592628516e-01 7.855104371383318101e-03 8.804766405349788716e-01 9.305363454045861848e-01
2.443460952792061436e-01 8.396841986492606727e-03 9.374701650734890146e-01 9.862658114751405858e-01
2.617993877991494078e-01 8.934895810768251137e-03 9.938652150869914381e-01 1.041700216274224156e+00
2.792526803190927276e-01 9.469063399582297591e-03 1.049691061805179793e+00 1.097031971705571651e+00
2.967059728390360474e-01 9.999089335498128478e-03 1.104975747949310971e+00 1.152551852329639859e+00
3.141592653589793116e-01 1.052476975974957901e-02 1.159746191993287878e+00 1.208335159222134081e+00
3.316125578789225758e-01 1.104591171434929353e-02 1.214028251145161663e+00 1.264529803426111210e+00
3.490658503988658956e-01 1.156230712031035973e-02 1.267846810336048513e+00 1.321345771464748298e+00
3.665191429188092154e-01 1.207374693574779154e-02 1.321225837226930322e+00 1.378964784623662565e+00
3.839724354387524796e-01 1.258001868455920283e-02 1.374188457627606441e+00 1.437580149617089242e+00
4.014257279586957439e-01 1.308090914714674612e-02 1.426757004637482007e+00 1.497384124315323195e+00
4.188790204786390636e-01 1.357620559031307191e-02 1.478953083513524280e+00 1.558572706630863447e+00
4.363323129985823834e-01 1.406569738648010166e-02 1.530797614101706339e+00 1.621344511799150068e+00
4.537856055185257032e-01 1.454917709652698427e-02 1.582310889346382865e+00 1.685903558551512527e+00
4.712388980384689674e-01 1.502644298423765241e-02 1.633512609886915712e+00 1.752454099580865288e+00
4.886921905584122872e-01 1.549729630781935923e-02 1.684421939371850252e+00 1.821220902739429715e+00
5.061454830783556069e-01 1.596154554174596119e-02 1.735057530976726659e+00 1.892424545462852770e+00
5.235987755982988157e-01 1.641889646419479598e-02 1.785437580902621724e+00 1.966770592345445268e+00
5.410520681182421354e-01 1.686916532466835317e-02 1.835579848590224827e+00 2.044115065678328236e+00
5.585053606381854552e-01 1.731216744148575751e-02 1.885501706880662987e+00 2.124769734589616821e+00
5.759586531581287749e-01 1.774774366596257313e-02 1.935220160580082505e+00 2.208939527577579831e+00
5.934119456780720947e-01 1.817557733849257603e-02 1.984751888920268437e+00 2.297813325522557459e+00
6.108652381980153034e-01 1.859548636881820302e-02 2.034113268401393615e+00 2.391152123384687744e+00
6.283185307179586232e-01 1.900732918787300524e-02 2.083320403504290041e+00 2.489159062992301941e+00
6.457718232379019430e-01 1.941083290855798518e-02 2.132389157624181575e+00 2.593127991131282783e+00
6.632251157578451517e-01 1.980576200373020124e-02 2.181335171397657202e+00 2.703464055927259579e+00
6.806784082777884715e-01 2.019200567000821456e-02 2.230173900421865252e+00 2.819951970970737687e+00
6.981317007977317912e-01 2.056926293278645707e-02 2.278920626780598813e+00 2.944672804145556988e+00
7.155849933176750000e-01 2.093732147552298389e-02 2.327590496411238163e+00 3.077867047225258279e+00
7.330382858376184307e-01 2.129609346740089781e-02 2.376198533877002195e+00 3.219380274257611863e+00
7.504915783575616395e-01 2.164519606994437517e-02 2.424759668929663103e+00 3.372907589208645529e+00
7.679448708775049592e-01 2.198450440461633196e-02 2.473288761019919235e+00 3.537386081758731482e+00
7.853981633974482790e-01 2.231388195701996743e-02 2.521800615832634929e+00 3.714194378127272600e+00
8.028514559173914877e-01 2.263293865271130342e-02 2.570310023075444761e+00 3.907901552715426163e+00
8.203047484373349185e-01 2.294162457271698222e-02 2.618831764926575101e+00 4.116490925370634990e+00
8.377580409572781273e-01 2.323982183854063355e-02 2.667380636732611165e+00 4.342706504466002926e+00
8.552113334772214470e-01 2.352777173134941793e-02 2.715971458022651053e+00 4.583133629893952232e+00
8.726646259971647668e-01 2.380588345926037963e-02 2.764619130387159451e+00 4.835908455855758348e+00
8.901179185171079755e-01 2.407462836223707783e-02 2.813338704986818595e+00 5.100177283124056160e+00
9.075712110370514063e-01 2.433465759817030061e-02 2.862145336308269616e+00 5.372152547242075471e+00
9.250245035569946150e-01 2.458659723091411939e-02 2.911054127170735750e+00 5.651200485787978067e+00
9.424777960769379348e-01 2.483100700247885262e-02 2.960080179973199055e+00 5.937612325146110592e+00
9.599310885968812546e-01 2.506839433728404523e-02 3.009239305257811470e+00 6.231653939749814519e+00
9.773843811168245743e-01 2.529921974683629546e-02 3.058548307434585389e+00 6.533681254659325255e+00
9.948376736367677831e-01 2.552390290375135956e-02 3.108022462895921656e+00 6.843716663851458826e+00
1.012290966156711214e+00 2.574282717310415192e-02 3.157672547139985575e+00 7.161321512875479911e+00
1.029744258676654312e+00 2.595634382347571101e-02 3.207505601983364762e+00 7.486057986387990582e+00
1.047197551196597631e+00 2.616477548129312464e-02 3.257527279212305782e+00 7.817765296861497681e+00
1.064650843716540951e+00 2.636841931622713880e-02 3.307742424900466549e+00 8.156336665880740355e+00
1.082104136236484271e+00 2.656754967982505669e-02 3.358156114551433369e+00 8.501819466384132440e+00
1.099557428756427591e+00 2.676242031596109960e-02 3.408773887505912814e+00 8.854312076575537205e+00
1.117010721276370910e+00 2.695326661570843219e-02 3.459601306245227992e+00 9.213833566404602493e+00
1.134464013796314230e+00 2.714030723328629546e-02 3.510643784134233947e+00 9.580376714338656896e+00
1.151917306316257550e+00 2.732374576030367763e-02 3.561906697645786934e+00 9.953945768455415788e+00
1.169370598836200648e+00 2.750377214044663621e-02 3.613395449991886110e+00 1.033455337520049255e+01
1.186823891356144189e+00 2.768056383102501447e-02 3.665115531748431632e+00 1.072222763010299751e+01
1.204277183876087287e+00 2.785428703813459111e-02 3.717072504389081100e+00 1.111698532551473306e+01
1.221730476396030607e+00 2.802509757734358842e-02 3.769271688634213469e+00 1.151878029635160594e+01
1.239183768915973927e+00 2.819314185902612249e-02 3.821718111719970334e+00 1.192753737258521696e+01
1.256637061435917246e+00 2.835855765909909426e-02 3.874416863742826678e+00 1.234325460116174433e+01
1.274090353955860566e+00 2.852147475148537198e-02 3.927373198312986702e+00 1.276595880919747472e+01
1.291543646475803886e+00 2.868201574967835926e-02 3.980592524187430925e+00 1.319566049187309353e+01
1.308996938995747206e+00 2.884029638730717035e-02 4.034080511201339370e+00 1.363242208451409532e+01
1.326450231515690303e+00 2.899642640543192984e-02 4.087843192378468160e+00 1.407630722737270546e+01
1.343903524035633845e+00 2.915050979067413880e-02 4.141886053561889547e+00 1.452715830966001320e+01
1.361356816555576943e+00 2.930264521082300011e-02 4.196213593359050087e+00 1.498467357355308138e+01
1.378810109075520263e+00 2.945292652654511734e-02 4.250830702510365100e+00 1.544889884329098173e+01
1.396263401595463582e+00 2.960144289142280921e-02 4.305743155019451152e+00 1.592005815056408125e+01
1.413716694115406902e+00 2.974827949392769982e-02 4.360957498092608908e+00 1.639832298756194717e+01
1.431169986635350000e+00 2.989351800027918379e-02 4.416478809447712095e+00 1.688317383815196493e+01
1.448623279155293542e+00 3.003723652999262111e-02 4.472310657818226787e+00 1.737405545485444236e+01
1.466076571675236861e+00 3.017950940151349973e-02 4.528459977176606976e+00 1.787199082594045763e+01
1.483529864195180181e+00 3.032040700538081446e-02 4.584933082758337441e+00 1.837684978032766736e+01
1.500983156715123279e+00 3.045999599868132526e-02 4.641732674848507045e+00 1.888748649081685116e+01
1.518436449235066599e+00 3.059834188227914323e-02 4.698865433732691166e+00 1.940492473452341216e+01
1.535889741755009918e+00 3.073551082134540202e-02 4.756338089600457231e+00 1.992866490585791794e+01
1.553343034274953460e+00 3.087156961487064893e-02 4.814153569163956092e+00 2.045678857514605298e+01
1.570796326794896558e+00 3.100658073642902426e-02 4.872317963095121662e+00 2.099052419476601372e+01
1.588249619314839878e+00 3.114059412606580771e-02 4.930837869666023998e+00 2.153159264392802541e+01
1.605702911834782975e+00 3.127364641957243452e-02 4.989717900244296622e+00 2.208114830645176241e+01
1.623156204354726295e+00 3.140576148334089934e-02 5.048962614326180542e+00 2.264119911565132526e+01
1.640609496874669837e+00 3.153695441715362313e-02 5.108578439939478244e+00 2.321406439785993214e+01
1.658062789394613157e+00 3.166723336795210231e-02 5.168571516229477858e+00 2.380112085513484033e+01
1.675516081914556255e+00 3.179659953977907738e-02 5.228945637663208856e+00 2.440305641268368220e+01
1.692969374434499574e+00 3.192504901853877169e-02 5.289705919307046145e+00 2.502182372195155224e+01
1.710422666954442894e+00 3.205257839472734627e-02 5.350858619755297418e+00 2.565835920274489013e+01
1.727875959474386436e+00 3.217918584296649426e-02 5.412409936442588609e+00 2.631290359870133244e+01
1.745329251994329534e+00 3.230487112150325080e-02 5.474364877736356050e+00 2.698517746624024127e+01
1.762782544514272853e+00 3.242963526489174575e-02 5.536727238248611904e+00 2.767488885124096853e+01
1.780235837034215951e+00 3.255347975432804769e-02 5.599502761582148658e+00 2.838331506439002183e+01
1.797689129554159271e+00 3.267640637903474615e-02 5.662697700118653366e+00 2.911117375618527703e+01
1.815142422074102813e+00 3.279841723626095856e-02 5.726318196330177912e+00 2.985891693557736914e+01
1.832595714594046132e+00 3.291951445815032712e-02 5.790369857999859704e+00 3.062686371333576218e+01
1.850049007113989230e+00 3.303969851718806944e-02 5.854855606314520955e+00 3.141471074203898084e+01
1.867502299633932550e+00 3.315896757723649224e-02 5.919781081293796099e+00 3.222500439931975791e+01
1.884955592153875870e+00 3.327731749221670560e-02 5.985152386877729214e+00 3.305935840464353248e+01
1.902408884673818967e+00 3.339474181096890870e-02 6.050975253850157998e+00 3.391908451503474708e+01
1.919862177193762509e+00 3.351123463481697762e-02 6.117255434969252725e+00 3.480495920592773018e+01
1.937315469713705829e+00 3.362679828296937651e-02 6.183998736994044343e+00 3.571542626274803212e+01
1.954768762233649149e+00 3.374144456446170892e-02 6.251210585258432317e+00 3.664797600550441103e+01
1.972222054753592246e+00 3.385519477815669004e-02 6.318894336884185670e+00 3.759874034117271435e+01
1.989675347273535566e+00 3.396807971274417443e-02 6.387055532311642914e+00 3.856576096135619736e+01
2.007128639793478886e+00 3.408013886694134104e-02 6.455699932156560017e+00 3.954586759079276703e+01
2.024581932313422428e+00 3.419141431783537938e-02 6.524833091254035544e+00 4.053745193193473284e+01
2.042035224833365525e+00 3.430194782155462918e-02 6.594460603766673756e+00 4.153997410315432859e+01
2.059488517353308623e+00 3.441178079602356249e-02 6.664588008240659889e+00 4.255281814648243710e+01
2.076941809873252165e+00 3.452095432096276284e-02 6.735220824116471050e+00 4.357536432185965936e+01
2.094395102393195263e+00 3.462950913788894608e-02 6.806364540672770858e+00 4.460696294939628359e+01
2.111848394913138804e+00 3.473748557907824913e-02 6.878024631999002381e+00 4.564698260512343353e+01
2.129301687433081902e+00 3.484492314052358569e-02 6.950206533675010512e+00 4.669494708300236852e+01
2.146754979953025444e+00 3.495186032310673013e-02 7.022915701358542151e+00 4.775049641506809195e+01
2.164208272472968542e+00 3.505833463233241909e-02 7.096157521269476298e+00 4.881322969006395596e+01
2.181661564992911639e+00 3.516438257832834452e-02 7.169936207199873124e+00 4.988201012326036476e+01
2.199114857512855181e+00 3.527003967584516758e-02 7.244257159834578630e+00 5.095730489510930994e+01
2.216568150032798723e+00 3.537534046223780176e-02 7.319125849236569614e+00 5.203886681884450383e+01
2.234021442552741821e+00 3.548031883592188407e-02 7.394547701527974581e+00 5.312622637732423669e+01
2.251474735072684918e+00 3.558500835771305493e-02 7.470528163933363608e+00 5.421881527364173792e+01
2.268928027592628460e+00 3.568944226135340597e-02 7.547072591296233313e+00 5.531597782231683169e+01
2.286381320112572002e+00 3.579365345351148003e-02 7.624186191573636862e+00 5.641701570074397409e+01
2.303834612632515100e+00 3.589767451378225727e-02 7.701865718785394499e+00 5.751501533692498924e+01
2.321287905152458197e+00 3.600153769468717596e-02 7.780081930770712084e+00 5.858943778328820429e+01
2.338741197672401295e+00 3.610527495804299186e-02 7.858793210875322899e+00 5.962907191639656190e+01
2.356194490192344837e+00 3.620891814867314984e-02 7.937958646066666901e+00 6.063224674249940449e+01
2.373647782712288379e+00 3.631249904621318414e-02 8.017537287801028256e+00 6.159675602069243183e+01
2.391101075232231477e+00 3.641604936511971119e-02 8.097489794232137328e+00 6.252173935201680166e+01
2.408554367752174574e+00 3.651960075467040184e-02 8.177775709637238322e+00 6.340428763676172963e+01
2.426007660272118116e+00 3.662318479896400220e-02 8.258347677008261556e+00 6.423685463414290098e+01
2.443460952792061214e+00 3.672683301751995810e-02 8.339162623335335311e+00 6.502079719332098762e+01
2.460914245312004311e+00 3.683057696690281158e-02 8.420184936073077608e+00 6.576025505665423054e+01
2.478367537831947853e+00 3.693444845605978188e-02 8.501374825372451483e+00 6.644996491014269679e+01
2.495820830351891395e+00 3.703847957376867062e-02 8.582683221494011860e+00 6.708033351250726639e+01
2.513274122871834493e+00 3.714270268863788249e-02 8.664072806703931207e+00 6.765920332078901822e+01
2.530727415391777591e+00 3.724715044910641842e-02 8.745506955155423867e+00 6.818556075065069422e+01
2.548180707911721132e+00 3.735185578344388246e-02 8.826939865537140051e+00 6.865012251414101740e+01
2.565634000431664674e+00 3.745685191021136395e-02 8.908327962070119455e+00 6.905320019375743357e+01
2.583087292951607772e+00 3.756217252353533098e-02 8.989631629318418859e+00 6.939667322546351613e+01
2.600540585471550870e+00 3.766785195203218445e-02 9.070809993075172883e+00 6.967803702762942919e+01
2.617993877991494411e+00 3.777392516396039374e-02 9.151820398694532344e+00 6.989443132499454236e+01
2.635447170511437509e+00 3.788042776722049670e-02 9.232620580215803230e+00 7.004499382767028237e+01
2.652900463031380607e+00 3.798739600935509275e-02 9.313169311727383715e+00 7.012959729377431017e+01
2.670353755551324149e+00 3.809486677773023244e-02 9.393426063038480933e+00 7.014799195153381106e+01
2.687807048071267690e+00 3.820287770920435810e-02 9.473350129501646677e+00 7.009926264366266935e+01
2.705260340591210788e+00 3.831146748552000103e-02 9.552900496713423451e+00 6.998234716334367533e+01
2.722713633111153886e+00 3.842067588253442884e-02 9.632035840514339142e+00 6.979632414539722163e+01
2.740166925631096984e+00 3.853054377021965238e-02 9.710714526988907025e+00 6.954045261177547843e+01
2.757620218151040525e+00 3.864111311266240495e-02 9.788894612465631084e+00 6.921417823583867346e+01
2.775073510670984067e+00 3.875242696811711379e-02 9.866534096455374936e+00 6.881736445897102783e+01
2.792526803190927165e+00 3.886452961404814749e-02 9.943591682779324259e+00 6.835067701588936018e+01
2.809980095710870263e+00 3.897746693983246413e-02 1.002002603000516068e+01 6.781408568606848064e+01
2.827433388230813804e+00 3.909128652365117390e-02 1.009579550082150057e+01 6.720751007011486422e+01
2.844886680750756902e+00 3.920603763248952517e-02 1.017085816203789861e+01 6.653109396725321290e+01
2.862339973270700000e+00 3.932177122213692533e-02 1.024517178458485489e+01 6.578520818786972768e+01
2.879793265790643542e+00 3.943853995305400539e-02 1.031869384370190623e+01 6.497044309971583687e+01
2.897246558310587083e+00 3.955639857133673443e-02 1.039138190117122384e+01 6.408774986704962373e+01
2.914699850830530625e+00 3.967540429879971853e-02 1.046319478990235119e+01 6.313916642819481950e+01
2.932153143350473723e+00 3.979561685066743820e-02 1.053409278913040126e+01 6.212713155393279862e+01
2.949606435870416821e+00 3.991709843557424142e-02 1.060403591465951578e+01 6.105282670317770766e+01
2.967059728390360362e+00 4.003991376750518777e-02 1.067298196810666511e+01 5.991597088442240704e+01
2.984513020910303460e+00 4.016413051471044715e-02 1.074088959274629218e+01 5.871899845796514938e+01
3.001966313430246558e+00 4.028981987416895005e-02 1.080772166019673897e+01 5.746726581245686560e+01
3.019419605950190100e+00 4.041705660911873443e-02 1.087343501496463993e+01 5.615751559218148259e+01
3.036872898470133197e+00 4.054591904905697347e-02 1.093798399893167073e+01 5.478987935639537454e+01
3.054326190990076295e+00 4.067648923187688198e-02 1.100134936080382531e+01 5.338925536244566672e+01
3.071779483510019837e+00 4.080885386075512600e-02 1.106354160505518891e+01 5.198265485408638398e+01
3.089232776029963379e+00 4.094310469896332572e-02 1.112458147645798689e+01 5.058017006045665198e+01
3.106686068549906921e+00 4.107933857110660641e-02 1.118448114410717231e+01 4.917622121582270722e+01
3.124139361069850018e+00 4.121765747880577757e-02 1.124325642105713463e+01 4.777550090290502283e+01
3.141592653589793116e+00 4.135816964510529575e-02 1.130092626942325751e+01 4.638194125945948798e+01
3.159045946109736214e+00 4.150099006857284334e-02 1.135750907174236524e+01 4.499634401307457665e+01
3.176499238629679756e+00 4.164624052890171513e-02 1.141302030931965916e+01 4.361782265134664271e+01
3.193952531149622853e+00 4.179405032868924869e-02 1.146747368485204355e+01 4.224636335794988184e+01
3.211405823669565951e+00 4.194455851786440398e-02 1.152088668454262077e+01 4.088582291030730431e+01
3.228859116189509493e+00 4.209791430890288955e-02 1.157327922399191067e+01 3.953900170280932969e+01
3.246312408709452590e+00 4.225427699989457719e-02 1.162466825217669353e+01 3.820479173523663974e+01
3.263765701229396576e+00 4.241381550086744529e-02 1.167506545263590390e+01 3.688079118224587205e+01
3.281218993749339674e+00 4.257670815365822287e-02 1.172448810624556970e+01 3.557283305895204961e+01
3.298672286269282772e+00 4.274314607721057396e-02 1.177295678023731540e+01 3.428422993517727946e+01
3.316125578789226314e+00 4.291334753795392198e-02 1.182048852899494840e+01 3.301079135859468749e+01
3.333578871309169411e+00 4.308756076076437902e-02 1.186709491682100293e+01 3.174744253848750120e+01
3.351032163829112509e+00 4.326602518330630726e-02 1.191279372986793916e+01 3.050470932939319368e+01
3.368485456349056051e+00 4.344892222625323930e-02 1.195760457189150650e+01 2.929682846795956408e+01
3.385938748868999149e+00 4.363638248353311072e-02 1.200154349704816248e+01 2.813049171771152501e+01
3.403392041388942246e+00 4.382851619963053225e-02 1.204462437200915836e+01 2.700686621079992022e+01
3.420845333908885788e+00 4.402542121413561410e-02 1.208686607546769842e+01 2.592975165139008453e+01
3.438298626428828886e+00 4.422719688692080403e-02 1.212828686696989600e+01 2.489711641950128040e+01
