# angles(rad), pulling distance(m),                                     elastic band force(n), cable force(n)
0.000000000000000000e+00 5.934903969201159269e-04 3.937065888895727866e-02 2.611750399660246399e-02
1.745329251994329547e-02 1.189731091941453010e-03 7.840895850830666147e-02 5.133752930062698838e-02
3.490658503988659095e-02 1.788359079340685279e-03 1.170617483797219832e-01 7.558555993614560209e-02
5.235987755982988295e-02 2.388999017331878277e-03 1.552974182889030885e-01 9.885957372900479323e-02
6.981317007977318190e-02 2.991263228066492422e-03 1.931058982855758943e-01 1.212265374969609261e-01
8.726646259971647390e-02 3.594751697633379647e-03 2.304986571829595043e-01 1.428193105395828832e-01
1.047197551196597659e-01 4.199054253293086833e-03 2.675030390580653838e-01 1.638051091683644933e-01
1.221730476396030718e-01 4.803760933583002372e-03 3.041438056196378303e-01 1.842887228815564271e-01
1.396263401595463638e-01 5.408470810223396479e-03 3.404394513048871196e-01 2.043371570263098624e-01
1.570796326794896558e-01 6.012793649285357901e-03 3.764050795435512908e-01 2.240134623907564793e-01
1.745329251994329478e-01 6.616349911190795227e-03 4.120562554533677146e-01 2.433955370047978795e-01
1.919862177193762398e-01 7.218770406764616135e-03 4.474092275128805918e-01 2.625615502069661988e-01
2.094395102393195318e-01 7.819677136292144809e-03 4.824801004014995787e-01 2.815910929433835808e-01
2.268928027592628516e-01 8.418654414624615265e-03 5.172841361465954080e-01 3.005719284534188462e-01
2.443460952792061436e-01 9.015269857926864333e-03 5.518357513507010648e-01 3.195830203623916121e-01
2.617993877991494078e-01 9.609150119319597935e-03 5.861488042192001258e-01 3.386634683027540116e-01
2.792526803190927276e-01 1.019993314787301202e-02 6.202368154563993041e-01 3.578748629047803775e-01
2.967059728390360474e-01 1.078718595268180792e-02 6.541129735601490802e-01 3.773304159398988000e-01
3.141592653589793116e-01 1.137052301219487055e-02 6.877901260390713034e-01 3.970742569904603947e-01
3.316125578789225758e-01 1.194958210186819469e-02 7.212807706598575175e-01 4.171622273575533169e-01
3.490658503988658956e-01 1.252396760867425726e-02 7.545970554442898992e-01 4.376915869007893534e-01
3.665191429188092154e-01 1.309327870918300558e-02 7.877508135786966958e-01 4.587456650719044515e-01
3.839724354387524796e-01 1.365710948597191957e-02 8.207536261956058787e-01 4.804132595288117535e-01
4.014257279586957439e-01 1.421505621954696416e-02 8.536168289327360492e-01 5.027824561189888630e-01
4.188790204786390636e-01 1.476672274711860432e-02 8.863515204941653236e-01 5.259417091353701945e-01
4.363323129985823834e-01 1.531172820542764726e-02 9.189686031118402543e-01 5.499775166242729663e-01
4.537856055185257032e-01 1.584970528427031081e-02 9.514787944873698278e-01 5.749828183216922906e-01
4.712388980384689674e-01 1.638030880803637360e-02 9.838926292476882773e-01 6.010463873283756753e-01
4.886921905584122872e-01 1.690299400527953480e-02 1.016220489692898354e+00 6.285281149271159107e-01
5.061454830783556069e-01 1.741745677397291484e-02 1.048472635118781637e+00 6.572971643563971789e-01
5.235987755982988157e-01 1.792336599516069010e-02 1.080659202985536416e+00 6.875286972643859240e-01
5.410520681182421354e-01 1.842016719656981022e-02 1.112790218782059082e+00 7.197059909776206688e-01
5.585053606381854552e-01 1.890767546817825884e-02 1.144875633108001889e+00 7.535012466301223011e-01
5.759586531581287749e-01 1.938526399615198015e-02 1.176925330385857338e+00 7.898033212301551753e-01
5.934119456780720947e-01 1.985279236534878353e-02 1.208949129828117863e+00 8.280811822397556865e-01
6.108652381980153034e-01 2.030960332434556329e-02 1.240956810345975603e+00 8.695095496229932053e-01
6.283185307179586232e-01 2.075552013164379608e-02 1.272958137034589932e+00 9.135414619375121781e-01
6.457718232379019430e-01 2.119002392317506298e-02 1.304962862455933958e+00 9.612109010779030793e-01
6.632251157578451517e-01 2.161272137482022834e-02 1.336980733338846150e+00 1.012716691959599125e+00
6.806784082777884715e-01 2.202339595887508467e-02 1.369021525513818283e+00 1.068109298339046109e+00
6.981317007977317912e-01 2.242139246091970697e-02 1.401095055262324252e+00 1.129107007337528445e+00
7.155849933176750000e-01 2.280642938279910450e-02 1.433211179729557250e+00 1.195448696487396933e+00
7.330382858376184307e-01 2.317827024150398776e-02 1.465379817940702933e+00 1.267727096194712466e+00
7.504915783575616395e-01 2.353625754589529565e-02 1.497610981564816424e+00 1.348364704557288407e+00
7.679448708775049592e-01 2.388006766223047320e-02 1.529914777360239730e+00 1.437481103786499848e+00
7.853981633974482790e-01 2.420949784934909449e-02 1.562301412774391052e+00 1.535915293771122458e+00
8.028514559173914877e-01 2.452405918262118290e-02 1.594781233336375115e+00 1.646680720595152581e+00
8.203047484373349185e-01 2.482397750683143500e-02 1.627364737972176734e+00 1.767989555939361246e+00
8.377580409572781273e-01 2.510983476175143031e-02 1.660062579588990950e+00 1.898866037756950620e+00
8.552113334772214470e-01 2.538256476714299478e-02 1.692885590414499486e+00 2.037384994758663748e+00
8.726646259971647668e-01 2.564340403979331953e-02 1.725844817725531444e+00 2.180749511874237712e+00
8.901179185171079755e-01 2.589341454623613967e-02 1.758951526541305377e+00 2.329225952893401619e+00
9.075712110370514063e-01 2.613353030100784569e-02 1.792217211318184900e+00 2.482941315537281479e+00
9.250245035569946150e-01 2.636457241536333332e-02 1.825653644324036762e+00 2.642087393487345892e+00
9.424777960769379348e-01 2.658726702804662875e-02 1.859272888144159586e+00 2.806863974008997786e+00
9.599310885968812546e-01 2.680225950255990530e-02 1.893087300677201767e+00 2.977482588220053294e+00
9.773843811168245743e-01 2.701012598071277776e-02 1.927109584740885007e+00 3.154172346427215778e+00
9.948376736367677831e-01 2.721138302024530414e-02 1.961352816464206450e+00 3.337178125116890826e+00
1.012290966156711214e+00 2.740649562521148275e-02 1.995830448333825835e+00 3.526758688079658199e+00
1.029744258676654312e+00 2.759588387056162093e-02 2.030556358651013138e+00 3.723194006795215838e+00
1.047197551196597631e+00 2.777992844317778501e-02 2.065544894726917491e+00 3.926787464484379875e+00
1.064650843716540951e+00 2.795897573611344500e-02 2.100810877023113754e+00 4.137854193828881755e+00
1.082104136236484271e+00 2.813334164924498337e-02 2.136369654881440372e+00 4.356739950880822221e+00
1.099557428756427591e+00 2.830331515345674634e-02 2.172237159062192724e+00 4.583815915637045713e+00
1.117010721276370910e+00 2.846916147548738188e-02 2.208429909381488532e+00 4.819470901087888670e+00
1.134464013796314230e+00 2.863112434100163056e-02 2.244965088740594084e+00 5.064136270474467239e+00
1.151917306316257550e+00 2.878942869460788048e-02 2.281860595577371420e+00 5.318262024183066927e+00
1.169370598836200648e+00 2.894428219127518145e-02 2.319135062573348893e+00 5.582342356455003873e+00
1.186823891356144189e+00 2.909587732233050519e-02 2.356807956967814643e+00 5.856901646694850250e+00
1.204277183876087287e+00 2.924439270699157392e-02 2.394899616738808135e+00 6.142508508104112863e+00
1.221730476396030607e+00 2.938999435332596832e-02 2.433431314363409204e+00 6.439778804419889369e+00
1.239183768915973927e+00 2.953283724238721028e-02 2.472425371405658101e+00 6.749366146183173321e+00
1.256637061435917246e+00 2.967306570706115462e-02 2.511905186583873739e+00 7.071998737354827647e+00
1.274090353955860566e+00 2.981081501344014575e-02 2.551895348666213259e+00 7.408437203273993354e+00
1.291543646475803886e+00 2.994621192296918755e-02 2.592421692701386338e+00 7.759510447328578309e+00
1.308996938995747206e+00 3.007937511573367112e-02 2.633511487018547648e+00 8.126152811975467571e+00
1.326450231515690303e+00 3.021041647830721710e-02 2.675193621302170754e+00 8.509357470640415144e+00
1.343903524035633845e+00 3.033944134818684218e-02 2.717498507524079621e+00 8.910178733469654944e+00
1.361356816555576943e+00 3.046654878185296386e-02 2.760457908630871593e+00 9.329715431655012381e+00
1.378810109075520263e+00 3.059183259641182207e-02 2.804105791396929614e+00 9.769281153952871222e+00
1.396263401595463582e+00 3.071538162257376331e-02 2.848479962697145762e+00 1.023067050680573153e+01
1.413716694115406902e+00 3.083727975112122641e-02 2.893618831141522296e+00 1.071506850051508941e+01
1.431169986635350000e+00 3.095760660467665112e-02 2.939555669059453535e+00 1.122225740392378235e+01
1.448623279155293542e+00 3.107643804305415536e-02 2.986314082073943332e+00 1.175070411897256939e+01
1.466076571675236861e+00 3.119384617559655890e-02 3.033905513515114283e+00 1.229794760540114318e+01
1.483529864195180181e+00 3.130989946532454493e-02 3.082340475327424834e+00 1.286418020246954441e+01
1.500983156715123279e+00 3.142466335747552686e-02 3.131631543640047699e+00 1.345035110385157395e+01
1.518436449235066599e+00 3.153820051412120629e-02 3.181788324131955115e+00 1.405603797558861956e+01
1.535889741755009918e+00 3.165057081457019195e-02 3.232813249991769222e+00 1.467950657249904012e+01
1.553343034274953460e+00 3.176183141017645262e-02 3.284698594747347045e+00 1.531788663164718756e+01
1.570796326794896558e+00 3.187203718772594480e-02 3.337428336541181650e+00 1.596846720329278391e+01
1.588249619314839878e+00 3.198124100236656581e-02 3.390993815353550378e+00 1.663313758470382098e+01
1.605702911834782975e+00 3.208949367937041081e-02 3.445388439547043991e+00 1.731233024039811497e+01
1.623156204354726295e+00 3.219684401638545773e-02 3.500603553806981072e+00 1.800518103404809978e+01
1.640609496874669837e+00 3.230333898005027099e-02 3.556629946409076926e+00 1.871122716610872772e+01
1.658062789394613157e+00 3.240902405264119851e-02 3.613455447850198787e+00 1.942908423349712521e+01
1.675516081914556255e+00 3.251394326738972496e-02 3.671068819258155980e+00 2.015861935823901163e+01
1.692969374434499574e+00 3.261813920848248560e-02 3.729460913836579739e+00 2.090014564131703168e+01
1.710422666954442894e+00 3.272165301827916623e-02 3.788622588279745518e+00 2.165327086270799839e+01
1.727875959474386436e+00 3.282452460483402390e-02 3.848544434158328809e+00 2.241745210350561379e+01
1.745329251994329534e+00 3.292679287548953143e-02 3.909216984816659579e+00 2.319215569261373489e+01
1.762782544514272853e+00 3.302849574933160171e-02 3.970630719798541541e+00 2.397683108889198067e+01
1.780235837034215951e+00 3.312967015718958769e-02 4.032776126197568978e+00 2.477093927059326717e+01
1.797689129554159271e+00 3.323035204312737440e-02 4.095643721807104676e+00 2.557394221065862183e+01
1.815142422074102813e+00 3.333057648144679280e-02 4.159224115419213774e+00 2.638529193214722568e+01
1.832595714594046132e+00 3.343037787594781152e-02 4.223507935380917289e+00 2.720435171094598203e+01
1.850049007113989230e+00 3.352978997934737138e-02 4.288486063278464933e+00 2.803057036089179022e+01
1.867502299633932550e+00 3.362884589327938545e-02 4.354146518379985231e+00 2.886200637871499453e+01
1.884955592153875870e+00 3.372757806829474597e-02 4.420478498525167055e+00 2.969843335779340165e+01
1.902408884673818967e+00 3.382601834616932174e-02 4.487472788732905116e+00 3.053984210515287501e+01
1.919862177193762509e+00 3.392419820826961946e-02 4.555120271742510774e+00 3.138550152725097675e+01
1.937315469713705829e+00 3.402214886589533666e-02 4.623411995065889180e+00 3.223467615536674913e+01
1.954768762233649149e+00 3.411990126040860549e-02 4.692339176085366326e+00 3.308662804683762459e+01
1.972222054753592246e+00 3.421748606323395808e-02 4.761893037165228826e+00 3.394053553368531340e+01
1.989675347273535566e+00 3.431493367575882275e-02 4.832064493389228055e+00 3.479541399568685023e+01
2.007128639793478886e+00 3.441227421856912078e-02 4.902838630288111510e+00 3.564744580163131360e+01
2.024581932313422428e+00 3.450953751119793106e-02 4.974207148773215792e+00 3.649905172352892890e+01
2.042035224833365525e+00 3.460675306988759276e-02 5.046161445025693304e+00 3.734926800269823133e+01
2.059488517353308623e+00 3.470395010758970528e-02 5.118693119297016203e+00 3.819739683441509470e+01
2.076941809873252165e+00 3.480115753396513523e-02 5.191793930570817395e+00 3.904273186138620133e+01
2.094395102393195263e+00 3.489840399646365610e-02 5.265452673234499947e+00 3.988285162264639894e+01
2.111848394913138804e+00 3.499571859005776164e-02 5.339656258599452698e+00 4.071554166450066958e+01
2.129301687433081902e+00 3.509313145670257816e-02 5.414396601508313367e+00 4.154213632956913926e+01
2.146754979953025444e+00 3.519067380416340124e-02 5.489665280328467567e+00 4.236107327447324877e+01
2.164208272472968542e+00 3.528837790601571656e-02 5.565453775130751346e+00 4.317089625842206146e+01
2.181661564992911639e+00 3.538627710164518603e-02 5.641753872850604701e+00 4.397036860640748301e+01
2.199114857512855181e+00 3.548440532276372211e-02 5.718551141118062731e+00 4.475461809861208451e+01
2.216568150032798723e+00 3.558279448073438378e-02 5.795836056009822101e+00 4.552642847587741670e+01
2.234021442552741821e+00 3.568147357031176831e-02 5.873600011721967107e+00 4.628684487651383961e+01
2.251474735072684918e+00 3.578046866883912575e-02 5.951834344617271455e+00 4.703644891325685506e+01
2.268928027592628460e+00 3.587980293624837280e-02 6.030530206182663555e+00 4.777583634018698433e+01
2.286381320112572002e+00 3.597949653981599716e-02 6.109678721013541924e+00 4.850581978752953916e+01
2.303834612632515100e+00 3.607956280017252104e-02 6.189268857971443438e+00 4.922785705392928435e+01
2.321287905152458197e+00 3.618000256937100451e-02 6.269288412742178629e+00 4.994691560128786278e+01
2.338741197672401295e+00 3.628080378617708213e-02 6.349728510006500848e+00 5.067129099538473014e+01
2.356194490192344837e+00 3.638194147606895607e-02 6.430579926360005416e+00 5.140729391550078020e+01
2.373647782712288379e+00 3.648337775123738913e-02 6.511833401181698733e+00 5.216172325210182947e+01
2.391101075232231477e+00 3.658506327115732676e-02 6.593479519997567984e+00 5.294087228187248684e+01
2.408554367752174574e+00 3.668695212083951385e-02 6.675508761645885691e+00 5.374355712548978659e+01
2.426007660272118116e+00 3.678901049797334011e-02 6.757911501802049692e+00 5.456391147109250284e+01
2.443460952792061214e+00 3.689121682175925537e-02 6.840678034433748778e+00 5.539571141858386483e+01
2.460914245312004311e+00 3.699356173290879735e-02 6.923798589768082046e+00 5.623239859612326796e+01
2.478367537831947853e+00 3.709604809364457079e-02 7.007263374898512254e+00 5.706707973035658910e+01
2.495820830351891395e+00 3.719869098757172532e-02 7.091062551720744622e+00 5.789248353138557945e+01
2.513274122871834493e+00 3.730151566263296969e-02 7.175185322228326612e+00 5.870151963540530460e+01
2.530727415391777591e+00 3.740455026045539505e-02 7.259605347060441360e+00 5.948060909854735456e+01
2.548180707911721132e+00 3.750782421077975687e-02 7.344269640848369640e+00 6.020854248119718477e+01
2.565634000431664674e+00 3.761136823146046110e-02 7.429118536844292464e+00 6.087773122292653483e+01
2.583087292951607772e+00 3.771521432846555721e-02 7.514091333283176688e+00 6.148457878536541443e+01
2.600540585471550870e+00 3.781939579587675904e-02 7.599114605750126650e+00 6.201694098645278075e+01
2.617993877991494411e+00 3.792394721585441719e-02 7.684131151566167439e+00 6.248392305367006827e+01
2.635447170511437509e+00 3.802890431717289438e-02 7.769084727445424221e+00 6.288393263669502886e+01
2.652900463031380607e+00 3.813430351193732026e-02 7.853906759096745738e+00 6.320582706495797254e+01
2.670353755551324149e+00 3.824018180089334279e-02 7.938530696480642135e+00 6.344924263539414255e+01
2.687807048071267690e+00 3.834657677342712817e-02 8.022896138936333799e+00 6.361721483808862132e+01
2.705260340591210788e+00 3.845352660756535396e-02 8.106943920056931319e+00 6.370936931695084837e+01
2.722713633111153886e+00 3.856107006997522985e-02 8.190613391137901544e+00 6.372347280891520427e+01
2.740166925631096984e+00 3.866924652785818511e-02 8.273842392579446425e+00 6.365744025046348753e+01
2.757620218151040525e+00 3.877809632991382344e-02 8.356567253886492352e+00 6.350915243074047112e+01
2.775073510670984067e+00 3.888766125869282803e-02 8.438723114141071235e+00 6.327668576236075637e+01
2.792526803190927165e+00 3.899798455690062920e-02 8.520245302630801376e+00 6.295941608195197858e+01
2.809980095710870263e+00 3.910911092739741135e-02 8.601070054277222710e+00 6.255755028466371925e+01
2.827433388230813804e+00 3.922108653319809207e-02 8.681134608374771133e+00 6.207165985040911238e+01
2.844886680750756902e+00 3.933395899982840976e-02 8.760377208590792719e+00 6.150260463037083269e+01
2.862339973270700000e+00 3.944777763106636220e-02 8.838737073147171941e+00 6.085139421974633223e+01
2.879793265790643542e+00 3.956259379502955614e-02 8.916153307780657400e+00 6.011827887966430239e+01
2.897246558310587083e+00 3.967846096426142638e-02 8.992563538018021774e+00 5.930272180802279536e+01
2.914699850830530625e+00 3.979543471573121494e-02 9.067904115149302058e+00 5.840465239613168791e+01
2.932153143350473723e+00 3.991357273083399881e-02 9.142111088935676477e+00 5.742507162817349808e+01
2.949606435870416821e+00 4.003293485004386781e-02 9.215125189983510268e+00 5.636914678155928726e+01
2.967059728390360362e+00 4.015358367991532507e-02 9.286888193487731868e+00 5.523924191246803161e+01
2.984513020910303460e+00 4.027558497164624579e-02 9.357335537308987483e+00 5.403216838896925367e+01
3.001966313430246558e+00 4.039900762682596680e-02 9.426400102533552428e+00 5.274803266598703999e+01
3.019419605950190100e+00 4.052392369743531425e-02 9.494016652548834756e+00 5.139071767959918446e+01
3.036872898470133197e+00 4.065040845135484832e-02 9.560164418139583731e+00 4.999681743006157575e+01
3.054326190990076295e+00 4.077854117216415247e-02 9.624865749093279632e+00 4.860129561626723671e+01
3.071779483510019837e+00 4.090840569391247100e-02 9.688146798567945694e+00 4.720889805963917496e+01
3.089232776029963379e+00 4.104009041091413734e-02 9.750033791247552983e+00 4.582158686320541818e+01
3.106686068549906921e+00 4.117368827958435562e-02 9.810552803518177711e+00 4.444120040292693830e+01
3.124139361069850018e+00 4.130929730359144542e-02 9.869729690179413595e+00 4.306939597339997050e+01
3.141592653589793116e+00 4.144702166772085139e-02 9.927589702666669069e+00 4.170725113132173334e+01
3.159045946109736214e+00 4.158697189959443402e-02 9.984153562306302021e+00 4.035307788764237813e+01
3.176499238629679756e+00 4.172926487558320519e-02 1.003944753751419228e+01 3.901253448265915580e+01
3.193952531149622853e+00 4.187402471630841116e-02 1.009349744912877611e+01 3.768673979429453880e+01
3.211405823669565951e+00 4.202138463223857590e-02 1.014632912072596760e+01 3.637675311088360530e+01
3.228859116189509493e+00 4.217148715138210879e-02 1.019796817894831698e+01 3.508358657450811791e+01
3.246312408709452590e+00 4.232448419487810920e-02 1.024844013924938579e+01 3.380842217840538666e+01
3.263765701229396576e+00 4.248053776700691508e-02 1.029777040589162951e+01 3.255239550197146059e+01
3.281218993749339674e+00 4.263982032454963211e-02 1.034598430008880143e+01 3.131668652898758154e+01
3.298672286269282772e+00 4.280251541325948844e-02 1.039310708347068157e+01 3.010245346941497857e+01
3.316125578789226314e+00 4.296882546794338065e-02 1.043916398433043291e+01 2.890958947724789851e+01
3.333578871309169411e+00 4.313897706281060590e-02 1.048418022349038026e+01 2.773752221981186850e+01
3.351032163829112509e+00 4.331321611432013829e-02 1.052818103927847737e+01 2.658695341139909729e+01
3.368485456349056051e+00 4.349178303918604244e-02 1.057119171039382799e+01 2.546238897794194855e+01
3.385938748868999149e+00 4.367490420583711869e-02 1.061323757560566783e+01 2.436871524608797301e+01
3.403392041388942246e+00 4.386277604240978317e-02 1.065434404925509781e+01 2.331177045492236388e+01
3.420845333908885788e+00 4.405554923025770120e-02 1.069453663147813849e+01 2.229776078803643102e+01
3.438298626428828886e+00 4.425334452652294331e-02 1.073384091263901396e+01 2.132942032153959744e+01
