# angles(rad), pulling distance(m),                                     elastic band force(n), cable force(n)
0.000000000000000000e+00 5.655321415555593671e-04 7.061052559298358622e-02 8.816203285640428211e-02
1.745329251994329547e-02 1.130584138827517640e-03 1.404833554414041397e-01 1.737179877017232255e-01
3.490658503988659095e-02 1.694937056679405836e-03 2.092095044918857172e-01 2.547725569173049931e-01
5.235987755982988295e-02 2.258371548707090084e-03 2.767880605943184857e-01 3.319806959996627893e-01
6.981317007977318190e-02 2.820668684685106922e-03 3.433068204005686463e-01 4.061259157287557819e-01
8.726646259971647390e-02 3.381609950566663841e-03 4.088067493459657809e-01 4.773550220534763522e-01
1.047197551196597659e-01 3.940977249903635134e-03 4.733407257341083474e-01 5.460912580030797825e-01
1.221730476396030718e-01 4.498553337209079857e-03 5.369559748139176580e-01 6.126264891981787475e-01
1.396263401595463638e-01 5.054122859700128229e-03 5.996966622623765009e-01 6.772398291789654134e-01
1.570796326794896558e-01 5.607472429709656377e-03 6.616053507829615654e-01 7.402033326685255599e-01
1.745329251994329478e-01 6.158389114600250520e-03 7.227221468425388817e-01 8.017630118624400337e-01
1.919862177193762398e-01 6.706659139786587918e-03 7.830851872938934255e-01 8.621555194707688496e-01
2.094395102393195318e-01 7.252068829780150376e-03 8.427308040475374185e-01 9.216044285040650985e-01
2.268928027592628516e-01 7.794404696583916853e-03 9.016935937384543687e-01 9.803218445901675793e-01
2.443460952792061436e-01 8.333444839982542471e-03 9.600065756583466836e-01 1.038528331793362014e+00
2.617993877991494078e-01 8.868959914048197418e-03 1.017701299537365323e+00 1.096439639361634466e+00
2.792526803190927276e-01 9.400727915474398760e-03 1.074807949568855836e+00 1.154237962090143288e+00
2.967059728390360474e-01 9.928544410249347599e-03 1.131355446754569005e+00 1.212075021806074515e+00
3.141592653589793116e-01 1.045221560434131565e-02 1.187371528536528942e+00 1.270108063961832512e+00
3.316125578789225758e-01 1.097152623257397104e-02 1.242882845815236559e+00 1.328570228364414518e+00
3.490658503988658956e-01 1.148622140976310671e-02 1.297915024410601248e+00 1.387755211056189264e+00
3.665191429188092154e-01 1.199608520527214311e-02 1.352492750286351297e+00 1.447758778408104519e+00
3.839724354387524796e-01 1.250090792599491130e-02 1.406639824071566958e+00 1.508755989313990575e+00
4.014257279586957439e-01 1.300047740016286278e-02 1.460379231898597752e+00 1.570950972451536920e+00
4.188790204786390636e-01 1.349458234658958838e-02 1.513733195774400464e+00 1.634544783026731674e+00
4.363323129985823834e-01 1.398301176027607132e-02 1.566723232944062794e+00 1.699748623279464299e+00
4.537856055185257032e-01 1.446555753020853721e-02 1.619370201522947417e+00 1.766774002165479862e+00
4.712388980384689674e-01 1.494195404121598930e-02 1.671694352208299206e+00 1.836075310455624887e+00
4.886921905584122872e-01 1.541198945105446902e-02 1.723715367910387153e+00 1.907716362280234890e+00
5.061454830783556069e-01 1.587545671744257716e-02 1.775452411304976108e+00 1.981944899033986518e+00
5.235987755982988157e-01 1.633215665700646010e-02 1.826924157418208905e+00 2.059010046915235481e+00
5.410520681182421354e-01 1.678190445208703127e-02 1.878148839649804502e+00 2.139145061899993205e+00
5.585053606381854552e-01 1.722444538455828594e-02 1.929144274987629970e+00 2.223015882013533506e+00
5.759586531581287749e-01 1.765952197230386336e-02 1.979927909793213647e+00 2.311039912152660580e+00
5.934119456780720947e-01 1.808696084293129336e-02 2.030516838746996289e+00 2.403189769429440847e+00
6.108652381980153034e-01 1.850660921593439215e-02 2.080927849614666592e+00 2.499751772920328019e+00
6.283185307179586232e-01 1.891812184721263293e-02 2.131177439273075791e+00 2.602369494226342894e+00
6.457718232379019430e-01 1.932133013012288930e-02 2.181281854144436316e+00 2.710555700457901285e+00
6.632251157578451517e-01 1.971610479719035358e-02 2.231257108260674027e+00 2.824589576942960534e+00
6.806784082777884715e-01 2.010208840004000519e-02 2.281119015610846290e+00 2.946781784805756033e+00
6.981317007977317912e-01 2.047912279614202968e-02 2.330883214414757099e+00 3.076497446122818058e+00
7.155849933176750000e-01 2.084708028951540865e-02 2.380565189107195501e+00 3.214262016914807507e+00
7.330382858376184307e-01 2.120556739449707545e-02 2.430180301593753533e+00 3.363403239632795749e+00
7.504915783575616395e-01 2.155449458302561780e-02 2.479743805324659434e+00 3.522362125611366857e+00
7.679448708775049592e-01 2.189364033297715520e-02 2.529270882208665139e+00 3.693615310276641583e+00
7.853981633974482790e-01 2.222268384671351529e-02 2.578776653680756148e+00 3.879861549161900403e+00
8.028514559173914877e-01 2.254156337483741168e-02 2.628276209773454219e+00 4.079863841940913893e+00
8.203047484373349185e-01 2.284994489842772161e-02 2.677784624204547548e+00 4.298988778214019035e+00
8.377580409572781273e-01 2.314778364240234823e-02 2.727316990785240591e+00 4.535691467354430628e+00
8.552113334772214470e-01 2.343541333805831267e-02 2.776888460958625515e+00 4.785821686571426703e+00
8.726646259971647668e-01 2.371316200602998497e-02 2.826514235076021286e+00 5.050175685587598551e+00
8.901179185171079755e-01 2.398154670451764850e-02 2.876209538488147643e+00 5.325717393631184571e+00
9.075712110370514063e-01 2.424124306413364890e-02 2.925989667454007570e+00 5.608709464160687830e+00
9.250245035569946150e-01 2.449286907247252149e-02 2.975870251436071534e+00 5.899157522563280409e+00
9.424777960769379348e-01 2.473698366983556260e-02 3.025867287053989774e+00 6.197269485730320326e+00
9.599310885968812546e-01 2.497409234407771406e-02 3.075996444850299216e+00 6.503225226054380137e+00
9.773843811168245743e-01 2.520465431462574207e-02 3.126272541420056061e+00 6.817116449092416985e+00
9.948376736367677831e-01 2.542908790430350660e-02 3.176707807938085271e+00 7.138775669599984219e+00
1.012290966156711214e+00 2.564777533312490379e-02 3.227309590329431099e+00 7.467627127882428439e+00
1.029744258676654312e+00 2.586106684172379683e-02 3.278081807366311384e+00 7.803193014178615883e+00
1.047197551196597631e+00 2.606928422538326920e-02 3.329028720578289136e+00 8.145512844636447980e+00
1.064650843716540951e+00 2.627272381548487884e-02 3.380155251897243307e+00 8.494689419239277228e+00
1.082104136236484271e+00 2.647165916493687127e-02 3.431466243919346848e+00 8.850711427149089872e+00
1.099557428756427591e+00 2.666634347739545163e-02 3.482966348651649557e+00 9.213538033415364481e+00
1.117010721276370910e+00 2.685701144741666282e-02 3.534660214102765430e+00 9.583164361738957027e+00
1.134464013796314230e+00 2.704388123644201058e-02 3.586552522331850401e+00 9.959581478598686033e+00
1.151917306316257550e+00 2.722715594962875352e-02 3.638647950983401547e+00 1.034277568479534715e+01
1.169370598836200648e+00 2.740702503935240134e-02 3.690951177829971730e+00 1.073273106736993299e+01
1.186823891356144189e+00 2.758366561757350996e-02 3.743466928741043809e+00 1.112943462670961203e+01
1.204277183876087287e+00 2.775724344983902456e-02 3.796199982010556973e+00 1.153287912749555844e+01
1.221730476396030607e+00 2.792791405965942483e-02 3.849155155235973513e+00 1.194304504047427073e+01
1.239183768915973927e+00 2.809582352625140944e-02 3.902337343019517846e+00 1.235992476085387004e+01
1.256637061435917246e+00 2.826110929485059833e-02 3.955751569837573367e+00 1.278352113299968273e+01
1.274090353955860566e+00 2.842390097534219437e-02 4.009402856466583565e+00 1.321379699588322154e+01
1.291543646475803886e+00 2.858432077838342703e-02 4.063296043686592363e+00 1.365068216399912160e+01
1.308996938995747206e+00 2.874248439935641122e-02 4.117435390135232076e+00 1.409396545773941867e+01
1.326450231515690303e+00 2.889850121699672619e-02 4.171824922398760904e+00 1.454353509105079922e+01
1.343903524035633845e+00 2.905247501987306621e-02 4.226469923865147749e+00 1.499965908958793115e+01
1.361356816555576943e+00 2.920450439076815660e-02 4.281375924759488250e+00 1.546235631771865293e+01
1.378810109075520263e+00 2.935468292249786629e-02 4.336547342423157758e+00 1.593126939592899305e+01
1.396263401595463582e+00 2.950309985562405216e-02 4.391988397512452735e+00 1.640624594304275163e+01
1.413716694115406902e+00 2.964984020054651365e-02 4.447703822452075961e+00 1.688736036462545442e+01
1.431169986635350000e+00 2.979498503702637108e-02 4.503699282944508830e+00 1.737483202186918163e+01
1.448623279155293542e+00 2.993861207226651902e-02 4.559979420781544057e+00 1.786824255660006244e+01
1.466076571675236861e+00 3.008079570275930259e-02 4.616547770586701738e+00 1.836712765553002669e+01
1.483529864195180181e+00 3.022160713420468311e-02 4.673410067822699077e+00 1.887210645147885302e+01
1.500983156715123279e+00 3.036111462001120712e-02 4.730571542756520032e+00 1.938293455011717015e+01
1.518436449235066599e+00 3.049938348949998018e-02 4.788035734577564817e+00 1.989895519613877539e+01
1.535889741755009918e+00 3.063647643633747586e-02 4.845807707704776313e+00 2.042058903300108241e+01
1.553343034274953460e+00 3.077245459468296376e-02 4.903892997586010161e+00 2.094777939171779479e+01
1.570796326794896558e+00 3.090737779011732897e-02 4.962296249310281127e+00 2.147994168429352868e+01
1.588249619314839878e+00 3.104130387571386873e-02 5.021021041970307408e+00 2.201650397814339399e+01
1.605702911834782975e+00 3.117427931485547768e-02 5.080073111740195380e+00 2.255971732578007050e+01
1.623156204354726295e+00 3.130633218758967218e-02 5.139458116181644165e+00 2.311246523734668301e+01
1.640609496874669837e+00 3.143747202491806864e-02 5.199179106132509887e+00 2.367702518743779905e+01
1.658062789394613157e+00 3.156769352743600543e-02 5.259240683631370317e+00 2.425699948144648488e+01
1.675516081914556255e+00 3.169699066500470536e-02 5.319648888517136243e+00 2.485363914627475168e+01
1.692969374434499574e+00 3.182536001793940389e-02 5.380408989516449303e+00 2.546668547803154325e+01
1.710422666954442894e+00 3.195280077250666623e-02 5.441524378517717864e+00 2.609533192754818032e+01
1.727875959474386436e+00 3.207931383071158798e-02 5.502999424588770339e+00 2.674009686870440561e+01
1.745329251994329534e+00 3.220489985482462292e-02 5.564839390845000011e+00 2.740189305152786048e+01
1.762782544514272853e+00 3.232955900748808731e-02 5.627050289586899900e+00 2.808168099185805033e+01
1.780235837034215951e+00 3.245329095157081789e-02 5.689637193442644403e+00 2.877969619243807031e+01
1.797689129554159271e+00 3.257609470796736517e-02 5.752602457044619477e+00 2.949536241672927162e+01
1.815142422074102813e+00 3.269796824743818886e-02 5.815951033258751401e+00 3.023069805700170321e+01
1.832595714594046132e+00 3.281890841783340063e-02 5.879688525349631156e+00 3.098694169659786368e+01
1.850049007113989230e+00 3.293891094409277104e-02 5.943820223657522384e+00 3.176493839438578348e+01
1.867502299633932550e+00 3.305797067718368315e-02 6.008351423061428775e+00 3.256568057936544136e+01
1.884955592153875870e+00 3.317608482564390893e-02 6.073286564290539147e+00 3.338886373209347624e+01
1.902408884673818967e+00 3.329325521284511036e-02 6.138628729223427172e+00 3.423316253089570438e+01
1.919862177193762509e+00 3.340948832317682665e-02 6.204382905214860244e+00 3.509878418494174213e+01
1.937315469713705829e+00 3.352479530204643954e-02 6.270554454746671169e+00 3.598501224833749035e+01
1.954768762233649149e+00 3.363919199987365494e-02 6.337148489433285903e+00 3.689060037003525849e+01
1.972222054753592246e+00 3.375269958708643214e-02 6.404170096603406748e+00 3.781401604992240806e+01
1.989675347273535566e+00 3.386534500633769235e-02 6.471624483212054635e+00 3.875341427802351291e+01
2.007128639793478886e+00 3.397716098297619974e-02 6.539516561330825262e+00 3.970643396303011485e+01
2.024581932313422428e+00 3.408818602504655459e-02 6.607849163377236934e+00 4.066934079409362823e+01
2.042035224833365525e+00 3.419846442328917241e-02 6.676627067423894779e+00 4.164046840690559748e+01
2.059488517353308623e+00 3.430804499179083283e-02 6.745855376405815562e+00 4.261742448781932779e+01
2.076941809873252165e+00 3.441697547644219368e-02 6.815539062853555485e+00 4.359953860007555448e+01
2.094395102393195263e+00 3.452530100360785142e-02 6.885683122983146554e+00 4.458688396440598467e+01
2.111848394913138804e+00 3.463306408006749243e-02 6.956292515156345502e+00 4.557958091128912770e+01
2.129301687433081902e+00 3.474030459301588603e-02 7.027372184996806936e+00 4.657785393062852108e+01
2.146754979953025444e+00 3.484705981006290532e-02 7.098927057538816143e+00 4.758201377301243440e+01
2.164208272472968542e+00 3.495336464853091712e-02 7.170962049241040859e+00 4.859234999632576546e+01
2.181661564992911639e+00 3.505925327861936225e-02 7.243482052090794099e+00 4.960847435848491216e+01
2.199114857512855181e+00 3.516475971424799091e-02 7.316491504578591432e+00 5.062942707695294331e+01
2.216568150032798723e+00 3.526991781398523818e-02 7.389993987433903122e+00 5.165392943762120836e+01
2.234021442552741821e+00 3.537476128104820317e-02 7.463994344878183362e+00 5.268218086982420800e+01
2.251474735072684918e+00 3.547932366330266291e-02 7.538497477429675797e+00 5.371355019755071680e+01
2.268928027592628460e+00 3.558363835117041296e-02 7.613507147165457845e+00 5.474652403350160057e+01
2.286381320112572002e+00 3.568773850908456974e-02 7.689013992846467360e+00 5.577063518728922986e+01
2.303834612632515100e+00 3.579165699322026106e-02 7.764988379974130162e+00 5.676951873659466941e+01
2.321287905152458197e+00 3.589542634662832438e-02 7.841393867128030770e+00 5.773626785815204698e+01
2.338741197672401295e+00 3.599907879923532755e-02 7.918195763764813933e+00 5.867033893584633120e+01
2.356194490192344837e+00 3.610264626784356196e-02 7.995359815869641729e+00 5.957028492820965937e+01
2.373647782712288379e+00 3.620616035613104244e-02 8.072850336566778751e+00 6.043325951471121726e+01
2.391101075232231477e+00 3.630965239222021940e-02 8.150624442207924147e+00 6.125181708313834150e+01
2.408554367752174574e+00 3.641315371323799316e-02 8.228646599591737498e+00 6.202981312082706467e+01
2.426007660272118116e+00 3.651669579560885837e-02 8.306887704519683169e+00 6.277062017992255250e+01
2.443460952792061214e+00 3.662031025573081466e-02 8.385312921773836692e+00 6.346797414763740619e+01
2.460914245312004311e+00 3.672402884997538752e-02 8.463876895668231981e+00 6.411153258678731959e+01
2.478367537831947853e+00 3.682788347468760742e-02 8.542548732860558047e+00 6.471141800198044791e+01
2.495820830351891395e+00 3.693190616629100920e-02 8.621298042389003768e+00 6.526665072900956943e+01
2.513274122871834493e+00 3.703612917297683521e-02 8.700081674196436410e+00 6.576513699903814825e+01
2.530727415391777591e+00 3.714058515115147702e-02 8.778861224539221908e+00 6.620920620116559974e+01
2.548180707911721132e+00 3.724530719878513252e-02 8.857604175705525051e+00 6.660239260198098066e+01
2.565634000431664674e+00 3.735032885541181291e-02 8.936277062215634004e+00 6.694264151989946754e+01
2.583087292951607772e+00 3.745568410212933574e-02 9.014844778177261375e+00 6.722738411585896756e+01
2.600540585471550870e+00 3.756140736159931798e-02 9.093270688539087487e+00 6.745422298653966209e+01
2.617993877991494411e+00 3.766753351373847841e-02 9.171517162043656413e+00 6.762130352898405761e+01
2.635447170511437509e+00 3.777409811883589846e-02 9.249547261890093353e+00 6.772821948899685651e+01
2.652900463031380607e+00 3.788113758352907451e-02 9.327325085785474812e+00 6.777491367475344930e+01
2.670353755551324149e+00 3.798868916475252322e-02 9.404815449225161217e+00 6.776121363846078793e+01
2.687807048071267690e+00 3.809679096973774687e-02 9.481983092478870390e+00 6.768640807784224478e+01
2.705260340591210788e+00 3.820548195601325414e-02 9.558792558486572943e+00 6.754982885468757559e+01
2.722713633111153886e+00 3.831480193689887348e-02 9.635208192858488729e+00 6.735095820526598231e+01
2.740166925631096984e+00 3.842479179281697160e-02 9.711194143875090390e+00 6.708930713380071609e+01
2.757620218151040525e+00 3.853549374448107800e-02 9.786714362487096253e+00 6.676438825494925311e+01
2.775073510670984067e+00 3.864695137102211464e-02 9.861732602315479213e+00 6.637588152942555553e+01
2.792526803190927165e+00 3.875920960998842368e-02 9.936212359750452805e+00 6.592359662783300678e+01
2.809980095710870263e+00 3.887231475734576058e-02 1.001011678824726481e+01 6.540745295035090123e+01
2.827433388230813804e+00 3.898631449284819389e-02 1.008340925402448285e+01 6.482803880299488242e+01
2.844886680750756902e+00 3.910125824949452211e-02 1.015605348996383128e+01 6.418606520819295724e+01
2.862339973270700000e+00 3.921719749282440159e-02 1.022801359561018053e+01 6.348229622287811225e+01
2.879793265790643542e+00 3.933418572781366418e-02 1.029925403717155064e+01 6.271770878739817334e+01
2.897246558310587083e+00 3.945227849887428251e-02 1.036973963804066123e+01 6.189348617015090070e+01
2.914699850830530625e+00 3.957153339371625306e-02 1.043943521740914804e+01 6.101070205304964844e+01
2.932153143350473723e+00 3.969201035919806692e-02 1.050830512487506851e+01 6.007007220671260228e+01
2.949606435870416821e+00 3.981377224660404696e-02 1.057631322761125503e+01 5.907226077690949495e+01
2.967059728390360362e+00 3.993688486572517099e-02 1.064342314490447983e+01 5.801836173013269615e+01
2.984513020910303460e+00 4.006141698485905789e-02 1.070959849621097781e+01 5.690993197316128516e+01
3.001966313430246558e+00 4.018744035379874513e-02 1.077480483677866907e+01 5.575042150108106398e+01
3.019419605950190100e+00 4.031503027715230281e-02 1.083901246823682030e+01 5.454563335713897487e+01
3.036872898470133197e+00 4.044426621357902207e-02 1.090220591695479690e+01 5.330932011442113350e+01
3.054326190990076295e+00 4.057523180396468976e-02 1.096438753665861476e+01 5.205820659320367128e+01
3.071779483510019837e+00 4.070801487271005076e-02 1.102556978730018145e+01 5.080234856495922457e+01
3.089232776029963379e+00 4.084270786591256280e-02 1.108576369275249185e+01 4.954195431568591346e+01
3.106686068549906921e+00 4.097940892611651870e-02 1.114497203205827347e+01 4.827140950063190417e+01
3.124139361069850018e+00 4.111822205408195013e-02 1.120320574175269712e+01 4.699874142844726777e+01
3.141592653589793116e+00 4.125925711889198017e-02 1.126047674710224378e+01 4.572613377321429340e+01
3.159045946109736214e+00 4.140263056332876834e-02 1.131678751072403699e+01 4.444734859916129466e+01
3.176499238629679756e+00 4.154846655824039753e-02 1.137214952981950411e+01 4.317076588724695085e+01
3.193952531149622853e+00 4.169689710933406623e-02 1.142657457194827053e+01 4.189783018950956972e+01
3.211405823669565951e+00 4.184806246055703532e-02 1.148006472730794059e+01 4.062243370155714928e+01
3.228859116189509493e+00 4.200211340142979977e-02 1.153263059438269167e+01 3.935209505453266132e+01
3.246312408709452590e+00 4.215921208605829390e-02 1.158428359538631902e+01 3.808835278244264089e+01
3.263765701229396576e+00 4.231953204933969204e-02 1.163502963774279486e+01 3.682833346084399295e+01
3.281218993749339674e+00 4.248325831005622666e-02 1.168487643490871797e+01 3.557484688227212644e+01
3.298672286269282772e+00 4.265058741752916771e-02 1.173383506117998287e+01 3.433188966132903630e+01
3.316125578789226314e+00 4.282173181358040620e-02 1.178191517564903634e+01 3.309929178985780851e+01
3.333578871309169411e+00 4.299693254552410665e-02 1.182912039602555687e+01 3.187179807754595018e+01
3.351032163829112509e+00 4.317645640968793136e-02 1.187546140592693966e+01 3.065446909572767709e+01
3.368485456349056051e+00 4.336053824052085726e-02 1.192094924993628169e+01 2.945745799413193211e+01
3.385938748868999149e+00 4.354934578234778697e-02 1.196558894617234614e+01 2.829019702678842663e+01
3.403392041388942246e+00 4.374300501270591418e-02 1.200938917125908745e+01 2.716183204294816278e+01
3.420845333908885788e+00 4.394162713824998484e-02 1.205236068454510701e+01 2.607504958801343520e+01
3.438298626428828886e+00 4.414531723123175239e-02 1.209451226413477620e+01 2.502835502881078611e+01
