# angles(rad), pulling distance(m),                                     elastic band force(n), cable force(n)
0.000000000000000000e+00 4.881029217615229818e-04 5.279592395482254896e-02 5.710700473137663574e-02
1.745329251994329547e-02 9.756793633330183152e-04 1.049608460608496691e-01 1.122957118539137655e-01
3.490658503988659095e-02 1.462583941882584018e-03 1.563851337786992257e-01 1.651657114867644827e-01
5.235987755982988295e-02 1.948672460278042277e-03 2.070439078539228761e-01 2.157753198171672715e-01
6.981317007977318190e-02 2.433802675920083893e-03 2.569824896647757151e-01 2.645339471815182919e-01
8.726646259971647390e-02 2.917834300742267687e-03 3.062447485367520428e-01 3.116802148236275660e-01
1.047197551196597659e-01 3.400629001211020498e-03 3.548592532676108635e-01 3.573217939222971817e-01
1.221730476396030718e-01 3.882049314600854745e-03 4.028561369823829286e-01 4.016415307525331158e-01
1.396263401595463638e-01 4.361952836843632254e-03 4.502663139233999967e-01 4.448228576011286628e-01
1.570796326794896558e-01 4.840190282326923416e-03 4.971181689100337420e-01 4.870155731418470690e-01
1.745329251994329478e-01 5.316608494373221624e-03 5.434383478186964878e-01 5.283627044539576101e-01
1.919862177193762398e-01 5.791062235643965744e-03 5.892525665443664185e-01 5.689942689886143823e-01
2.094395102393195318e-01 6.263416464200943258e-03 6.345854991651315169e-01 6.090264453364018227e-01
2.268928027592628516e-01 6.733540894208981699e-03 6.794606832274981967e-01 6.485713414734480819e-01
2.443460952792061436e-01 7.201303934070239603e-03 7.239006506549394704e-01 6.877439770647747475e-01
2.617993877991494078e-01 7.666548763861594229e-03 7.679270419997867858e-01 7.266938676252605589e-01
2.792526803190927276e-01 8.129105616244632765e-03 8.115606563097041981e-01 7.655561577800907846e-01
2.967059728390360474e-01 8.588864959850573896e-03 8.548215071713709534e-01 8.043404935513749354e-01
3.141592653589793116e-01 9.045703670843178307e-03 8.977288615636127567e-01 8.431678289162608531e-01
3.316125578789225758e-01 9.499428042748760126e-03 9.403013182610451270e-01 8.822743417128434684e-01
3.490658503988658956e-01 9.949903245882001784e-03 9.825568304392939822e-01 9.216587689105003589e-01
3.665191429188092154e-01 1.039701822171731384e-02 1.024512772789069492e+00 9.613723796981354930e-01
3.839724354387524796e-01 1.084063419623651318e-02 1.066185966495341697e+00 1.001572911273656219e+00
4.014257279586957439e-01 1.128058818255497399e-02 1.107592723411122027e+00 1.042423164380067879e+00
4.188790204786390636e-01 1.171672618958622368e-02 1.148748890571823944e+00 1.084016999294844741e+00
4.363323129985823834e-01 1.214891083886421308e-02 1.189669866660028053e+00 1.126427147465351108e+00
4.537856055185257032e-01 1.257700541916485608e-02 1.230370656452711042e+00 1.169766209611877050e+00
4.712388980384689674e-01 1.300086964196687719e-02 1.270865884871167140e+00 1.214162496586064455e+00
4.886921905584122872e-01 1.342036224632011353e-02 1.311169830712501483e+00 1.259743730817466822e+00
5.061454830783556069e-01 1.383534090543907420e-02 1.351296463053571539e+00 1.306644936196472262e+00
5.235987755982988157e-01 1.424566294394977867e-02 1.391259449892524147e+00 1.355006016430992721e+00
5.410520681182421354e-01 1.465118577052894333e-02 1.431072200858946708e+00 1.404974453063128070e+00
5.585053606381854552e-01 1.505176731471107553e-02 1.470747883739206063e+00 1.456705319542081600e+00
5.759586531581287749e-01 1.544726645698362572e-02 1.510299440669499615e+00 1.510362170855607866e+00
5.934119456780720947e-01 1.583754319272838093e-02 1.549739626658406699e+00 1.566119973642536856e+00
6.108652381980153034e-01 1.622245953379226197e-02 1.589081016062169782e+00 1.624162145837654947e+00
6.283185307179586232e-01 1.660187784400074876e-02 1.628336027681651865e+00 1.684693331008217054e+00
6.457718232379019430e-01 1.697566524229350560e-02 1.667516953275381741e+00 1.747914936966236343e+00
6.632251157578451517e-01 1.734364031130546449e-02 1.706635961981880278e+00 1.814305171131661343e+00
6.806784082777884715e-01 1.770565747555444963e-02 1.745705131291935830e+00 1.883978332391143873e+00
6.981317007977317912e-01 1.806158161200598772e-02 1.784736465907863279e+00 1.957176798870526868e+00
7.155849933176750000e-01 1.841128013167315017e-02 1.823741904236483080e+00 2.034205133059239667e+00
7.330382858376184307e-01 1.875462246735225269e-02 1.862733352045438995e+00 2.115400949161253319e+00
7.504915783575616395e-01 1.909148050780105910e-02 1.901722693793383989e+00 2.201132439034104493e+00
7.679448708775049592e-01 1.942170883539324697e-02 1.940721803843724613e+00 2.291942177009870019e+00
7.853981633974482790e-01 1.974518004372826860e-02 1.979742579779365519e+00 2.388190652684267334e+00
8.028514559173914877e-01 2.006202374360594592e-02 2.018796948798428303e+00 2.488382790737828643e+00
8.203047484373349185e-01 2.037237669080484148e-02 2.057896885630313921e+00 2.592649400010801575e+00
8.377580409572781273e-01 2.067638127293739206e-02 2.097054442863654167e+00 2.701128015631690360e+00
8.552113334772214470e-01 2.097417638377345808e-02 2.136281755097936497e+00 2.814035166405373545e+00
8.726646259971647668e-01 2.126590029891647915e-02 2.175591065034402583e+00 2.931572594194594483e+00
8.901179185171079755e-01 2.155169062873217925e-02 2.214994748528953838e+00 3.053950498234567767e+00
9.075712110370514063e-01 2.183168490749605103e-02 2.254505319710583322e+00 3.181379037709131996e+00
9.250245035569946150e-01 2.210602093431588214e-02 2.294135465805724472e+00 3.314071605026033485e+00
9.424777960769379348e-01 2.237483700545196338e-02 2.333898064686046325e+00 3.452243468237118584e+00
9.599310885968812546e-01 2.263827230912511881e-02 2.373806196452155959e+00 3.596107626970017623e+00
9.773843811168245743e-01 2.289646633467224551e-02 2.413873184117520498e+00 3.745889429038631757e+00
9.948376736367677831e-01 2.314956097110383582e-02 2.454112603214886335e+00 3.901784207883930655e+00
1.012290966156711214e+00 2.339769595697314269e-02 2.494538308358422718e+00 4.064056899097181486e+00
1.029744258676654312e+00 2.364099942556308065e-02 2.535164470424331462e+00 4.233149787633163186e+00
1.047197551196597631e+00 2.387960712427757842e-02 2.576005584861516873e+00 4.409201356408963157e+00
1.064650843716540951e+00 2.411366241177080941e-02 2.617076517680370085e+00 4.592324103874643626e+00
1.082104136236484271e+00 2.434330864882054343e-02 2.658392528387404141e+00 4.782755231585535505e+00
1.099557428756427591e+00 2.456868290693399459e-02 2.699969295059490904e+00 4.980870235232454313e+00
1.117010721276370910e+00 2.478991635592149925e-02 2.741822966150603058e+00 5.187070813229856192e+00
1.134464013796314230e+00 2.500715138262495779e-02 2.783970173875409237e+00 5.401365102054394463e+00
1.151917306316257550e+00 2.522053165500977648e-02 2.826428092146811455e+00 5.623961934022809750e+00
1.169370598836200648e+00 2.543018780007197041e-02 2.869214466413460674e+00 5.855458420969933186e+00
1.186823891356144189e+00 2.563625709803773328e-02 2.912347656312418653e+00 6.095951495519731367e+00
1.204277183876087287e+00 2.583888257840954300e-02 2.955846693892582255e+00 6.345524076384799983e+00
1.221730476396030607e+00 2.603820355553698729e-02 2.999731313387474785e+00 6.604526486479765701e+00
1.239183768915973927e+00 2.623435630549271827e-02 3.044022031342285661e+00 6.873312827316435225e+00
1.256637061435917246e+00 2.642747650751151381e-02 3.088740176805573778e+00 7.152163837900829435e+00
1.274090353955860566e+00 2.661770609754568473e-02 3.133907977127897038e+00 7.441099447989237170e+00
1.291543646475803886e+00 2.680517820894955452e-02 3.179548601454362800e+00 7.740702452222053331e+00
1.308996938995747206e+00 2.698997566736034692e-02 3.225686266278714243e+00 8.053445813699934064e+00
1.326450231515690303e+00 2.717214168154805098e-02 3.272346296143964661e+00 8.381792651520042270e+00
1.343903524035633845e+00 2.735171475057279061e-02 3.319555185750321158e+00 8.726949712303726514e+00
1.361356816555576943e+00 2.752873264441017126e-02 3.367340671889735404e+00 9.090042114674240281e+00
1.378810109075520263e+00 2.770323174038694797e-02 3.415732034422876318e+00 9.472365817632534046e+00
1.396263401595463582e+00 2.787524732025037713e-02 3.464760123929622182e+00 9.875301388995854524e+00
1.413716694115406902e+00 2.804481478283633519e-02 3.514456755399038901e+00 1.030012831027235265e+01
1.431169986635350000e+00 2.821197009449265963e-02 3.564855704761530575e+00 1.074838605896421306e+01
1.448623279155293542e+00 2.837675115798444364e-02 3.615995507800798148e+00 1.122224205507871986e+01
1.466076571675236861e+00 2.853919824441908393e-02 3.667909940888931075e+00 1.172181473849896349e+01
1.483529864195180181e+00 2.869935113124904777e-02 3.720616837652769515e+00 1.224468515314178951e+01
1.500983156715123279e+00 2.885724604898067674e-02 3.774118944679357490e+00 1.278846201069721644e+01
1.518436449235066599e+00 2.901291645049440537e-02 3.828408785586256968e+00 1.335152359568637337e+01
1.535889741755009918e+00 2.916639723265672043e-02 3.883476919403699767e+00 1.393372014800580594e+01
1.553343034274953460e+00 2.931772593820424974e-02 3.939319572165805194e+00 1.453670367373415040e+01
1.570796326794896558e+00 2.946694143357641085e-02 3.995933424535635936e+00 1.516097134631385224e+01
1.588249619314839878e+00 2.961408134341951548e-02 4.053309549095406084e+00 1.580558217115846098e+01
1.605702911834782975e+00 2.975918178336519823e-02 4.111440460139164088e+00 1.647147174326464736e+01
1.623156204354726295e+00 2.990227904773457707e-02 4.170321407767582755e+00 1.715983023760612980e+01
1.640609496874669837e+00 3.004341225869523735e-02 4.229947987607246773e+00 1.787087034184994749e+01
1.658062789394613157e+00 3.018262360272188152e-02 4.290315272831418447e+00 1.860442391297238629e+01
1.675516081914556255e+00 3.031996082839730211e-02 4.351417602377251725e+00 1.935977307131361513e+01
1.692969374434499574e+00 3.045548385722062976e-02 4.413246403616664537e+00 2.013427069029594918e+01
1.710422666954442894e+00 3.058926586480236257e-02 4.475794916574761473e+00 2.092615602035482070e+01
1.727875959474386436e+00 3.072139244569693436e-02 4.539057681628409391e+00 2.173319991583995048e+01
1.745329251994329534e+00 3.085195050608961417e-02 4.603029177615536760e+00 2.255415419613391137e+01
1.762782544514272853e+00 3.098102037248003787e-02 4.667703705755680055e+00 2.338900187241116058e+01
1.780235837034215951e+00 3.110867562336835576e-02 4.733075490515947337e+00 2.423790561430157098e+01
1.797689129554159271e+00 3.123498348447482920e-02 4.799138689283280357e+00 2.510108637457282654e+01
1.815142422074102813e+00 3.136000789978059949e-02 4.865887426873518606e+00 2.597827330011400804e+01
1.832595714594046132e+00 3.148381096899618287e-02 4.933315817361477507e+00 2.686892558004590370e+01
1.850049007113989230e+00 3.160645295575727903e-02 5.001417984862501775e+00 2.777249572866365313e+01
1.867502299633932550e+00 3.172799227936397293e-02 5.070188079345202325e+00 2.868843621262625376e+01
1.884955592153875870e+00 3.184848538744886048e-02 5.139620292113731281e+00 2.961623410196066786e+01
1.902408884673818967e+00 3.196798665601548184e-02 5.209708858266179909e+00 3.055540985692706712e+01
1.919862177193762509e+00 3.208654838675227550e-02 5.280448089962910707e+00 3.150551519256146804e+01
1.937315469713705829e+00 3.220422080705626772e-02 5.351832303056112572e+00 3.246608989374821874e+01
1.954768762233649149e+00 3.232105222307134207e-02 5.423856000380148146e+00 3.343673955386572771e+01
1.972222054753592246e+00 3.243708953634160536e-02 5.496511259387076187e+00 3.441569249842320488e+01
1.989675347273535566e+00 3.255237835272790231e-02 5.569791218008923295e+00 3.540274614498900263e+01
2.007128639793478886e+00 3.266696298240779478e-02 5.643690284942929125e+00 3.639785259915973370e+01
2.024581932313422428e+00 3.278088644035949406e-02 5.718202897836023979e+00 3.740039554902605090e+01
2.042035224833365525e+00 3.289419055353482585e-02 5.793323586323115393e+00 3.840976679810854932e+01
2.059488517353308623e+00 3.300691620226704759e-02 5.869046924760803918e+00 3.942526227070736411e+01
2.076941809873252165e+00 3.311910335329289190e-02 5.945367582422975694e+00 4.044619725028405810e+01
2.094395102393195263e+00 3.323079105975258740e-02 6.022280139793653397e+00 4.147179501096965737e+01
2.111848394913138804e+00 3.334201746119898335e-02 6.099779467220265872e+00 4.250149245258635489e+01
2.129301687433081902e+00 3.345281985532161384e-02 6.177856054527631535e+00 4.353208443130225191e+01
2.146754979953025444e+00 3.356323494277495267e-02 6.256503810073955840e+00 4.456456029501313054e+01
2.164208272472968542e+00 3.367329887937259292e-02 6.335717429329873696e+00 4.559850607512986898e+01
2.181661564992911639e+00 3.378304727608723301e-02 6.415491638410856012e+00 4.663309776183764654e+01
2.199114857512855181e+00 3.389251519905069066e-02 6.495821133505631728e+00 4.766748265194302547e+01
2.216568150032798723e+00 3.400173718597365030e-02 6.576700628981396513e+00 4.870083796793920783e+01
2.234021442552741821e+00 3.411074742199225046e-02 6.658124688676457126e+00 4.973216845576180134e+01
2.251474735072684918e+00 3.421957984636444378e-02 6.740087902480759396e+00 5.076054025237311862e+01
2.268928027592628460e+00 3.432826815396809728e-02 6.822580306800015926e+00 5.178211581153048826e+01
2.286381320112572002e+00 3.443684579530097156e-02 6.905597082383055252e+00 5.279912109137823251e+01
2.303834612632515100e+00 3.454534597680464919e-02 6.989129319153356334e+00 5.380798419088154816e+01
2.321287905152458197e+00 3.465380173872043001e-02 7.073146807564734573e+00 5.479358767476303171e+01
2.338741197672401295e+00 3.476224613354225029e-02 7.157604483862126443e+00 5.574420361292349213e+01
2.356194490192344837e+00 3.487071225091565446e-02 7.242453930123252448e+00 5.665531508121771509e+01
2.373647782712288379e+00 3.497923321763778820e-02 7.327646884500088831e+00 5.752472591948126279e+01
2.391101075232231477e+00 3.508784219765738455e-02 7.413135064037536637e+00 5.835018625305496442e+01
2.408554367752174574e+00 3.519657240529019959e-02 7.498870452177863299e+00 5.912971039314768262e+01
2.426007660272118116e+00 3.530545726634840009e-02 7.584806026933474499e+00 5.986182642837132306e+01
2.443460952792061214e+00 3.541453052577099581e-02 7.670894973054856791e+00 6.054456129155451549e+01
2.460914245312004311e+00 3.552382624959028040e-02 7.757086753230892029e+00 6.117321820809991095e+01
2.478367537831947853e+00 3.563337882493183145e-02 7.843327173819202969e+00 6.174312490354849103e+01
2.495820830351891395e+00 3.574322296032784313e-02 7.929573526511854098e+00 6.226065621111644077e+01
2.513274122871834493e+00 3.585339377098280961e-02 8.015781420573523164e+00 6.272293281842727453e+01
2.530727415391777591e+00 3.596392697922336928e-02 8.101894556338322673e+00 6.311945133843101274e+01
2.548180707911721132e+00 3.607485894327699949e-02 8.187863659846941644e+00 6.345360460286624260e+01
2.565634000431664674e+00 3.618622665727202342e-02 8.273644695610924416e+00 6.372778842927385767e+01
2.583087292951607772e+00 3.629806775123759627e-02 8.359192140391671799e+00 6.393960419073964374e+01
2.600540585471550870e+00 3.641042053198807749e-02 8.444458793296517385e+00 6.408659688595938064e+01
2.617993877991494411e+00 3.652332422631078546e-02 8.529395990446085207e+00 6.416645559325523607e+01
2.635447170511437509e+00 3.663681907052263736e-02 8.613953945911427823e+00 6.417721784606210633e+01
2.652900463031380607e+00 3.675094631061009975e-02 8.698083010543959048e+00 6.411804817258104094e+01
2.670353755551324149e+00 3.686574820222919546e-02 8.781733970928675248e+00 6.398853452246557794e+01
2.687807048071267690e+00 3.698126804968213804e-02 8.864858049384158889e+00 6.378844607580637671e+01
2.705260340591210788e+00 3.709755049809194266e-02 8.947406903962576763e+00 6.351759886979112935e+01
2.722713633111153886e+00 3.721464166598279638e-02 9.029332628449674658e+00 6.317595345109752003e+01
2.740166925631096984e+00 3.733258914594109884e-02 9.110587255672076168e+00 6.276330545582501941e+01
2.757620218151040525e+00 3.745144200461610062e-02 9.191121312667563714e+00 6.227854305724675044e+01
2.775073510670984067e+00 3.757125088654756501e-02 9.270885491756985175e+00 6.172201582726263780e+01
2.792526803190927165e+00 3.769206840682302190e-02 9.349831192485401843e+00 6.109453111603950504e+01
2.809980095710870263e+00 3.781394924388448847e-02 9.427910521622081319e+00 6.039710149985755550e+01
2.827433388230813804e+00 3.793695013952845529e-02 9.505076291456738602e+00 5.963099093932228101e+01
2.844886680750756902e+00 3.806112992270756223e-02 9.581281804226939869e+00 5.879753323725874026e+01
2.862339973270700000e+00 3.818654990627338985e-02 9.656480428281319917e+00 5.789779433623336047e+01
2.879793265790643542e+00 3.831327421458465693e-02 9.730624752488095552e+00 5.693229704681720449e+01
2.897246558310587083e+00 3.844136979332290344e-02 9.803662047163706816e+00 5.589833473503205141e+01
2.914699850830530625e+00 3.857090642644338263e-02 9.875537325498500607e+00 5.479585016816614740e+01
2.932153143350473723e+00 3.870195717849594930e-02 9.946208020469633482e+00 5.363612357234538308e+01
2.949606435870416821e+00 3.883459886820946755e-02 1.001563410790685893e+01 5.242290646452393332e+01
2.967059728390360362e+00 3.896891209170457587e-02 1.008376546979606836e+01 5.115063554807818491e+01
2.984513020910303460e+00 3.910498130128163552e-02 1.015054404610598127e+01 4.981574319986934540e+01
3.001966313430246558e+00 3.924289556803650658e-02 1.021592353091569372e+01 4.842949413593377983e+01
3.019419605950190100e+00 3.938274900967960596e-02 1.027985969093883689e+01 4.699596566901724515e+01
3.036872898470133197e+00 3.952464080103006150e-02 1.034232105507873456e+01 4.552733285870458246e+01
3.054326190990076295e+00 3.966867564101432542e-02 1.040332412441231469e+01 4.406119400907286376e+01
3.071779483510019837e+00 3.981496455646005295e-02 1.046290081870299638e+01 4.261054513736166882e+01
3.089232776029963379e+00 3.996362498422367099e-02 1.052108249317132049e+01 4.117667397307819499e+01
3.106686068549906921e+00 4.011478151941513109e-02 1.057790056698367032e+01 3.976116113228736992e+01
3.124139361069850018e+00 4.026856767881692445e-02 1.063338640727314477e+01 3.836511570516192648e+01
3.141592653589793116e+00 4.042512614588721076e-02 1.068757137349063768e+01 3.698973965807036279e+01
3.159045946109736214e+00 4.058460830542170300e-02 1.074048683328712528e+01 3.563644992520824673e+01
3.176499238629679756e+00 4.074717355882581660e-02 1.079216418570520197e+01 3.430686818369779445e+01
3.193952531149622853e+00 4.091299076261908918e-02 1.084263488280386234e+01 3.300232595910858180e+01
3.211405823669565951e+00 4.108224979013903183e-02 1.089193045039507979e+01 3.172202402338828264e+01
3.228859116189509493e+00 4.125516594002397869e-02 1.094008250472874622e+01 3.046490727054640857e+01
3.246312408709452590e+00 4.143195141883155436e-02 1.098712276950950795e+01 2.923527247501050752e+01
3.263765701229396576e+00 4.161278310502537076e-02 1.103308306763504021e+01 2.804175516500938414e+01
3.281218993749339674e+00 4.179780122636917589e-02 1.107799538134428552e+01 2.689133368249749267e+01
3.298672286269282772e+00 4.198711021215356665e-02 1.112189164527726426e+01 2.578902892919797907e+01
3.316125578789226314e+00 4.218079485229526276e-02 1.116480427923137775e+01 2.473666258994316891e+01
3.333578871309169411e+00 4.237894701407732972e-02 1.120676513479678604e+01 2.373153282545870724e+01
3.351032163829112509e+00 4.258166394324003345e-02 1.124780295431086685e+01 2.276994375731110054e+01
3.368485456349056051e+00 4.278904107278302255e-02 1.128794963655174932e+01 2.185263766589953605e+01
3.385938748868999149e+00 4.300117243060623540e-02 1.132723818452295994e+01 2.097901721653209961e+01
3.403392041388942246e+00 4.321815255120139282e-02 1.136570052841457112e+01 2.014707527555425415e+01
3.420845333908885788e+00 4.344007647938420008e-02 1.140336763212643412e+01 1.935491295512679955e+01
3.438298626428828886e+00 4.366703944050271541e-02 1.144027067851894763e+01 1.860130998959895976e+01
