# angles(rad), pulling distance(m),                                     elastic band force(n), cable force(n)
0.000000000000000000e+00 4.939239345720795090e-04 4.648350001114719132e-02 4.374592162978086646e-02
1.745329251994329547e-02 9.873507752188792272e-04 9.229825144303299700e-02 8.569905605291434914e-02
3.490658503988659095e-02 1.480118749180817095e-03 1.373426934880516703e-01 1.255464097511979071e-01
5.235987755982988295e-02 1.972064099626016573e-03 1.816019340965533135e-01 1.633832637888496531e-01
6.981317007977318190e-02 2.463021327951356310e-03 2.251279960447494788e-01 1.995883660892680267e-01
8.726646259971647390e-02 2.952823193782471226e-03 2.679660584319406014e-01 2.343630665693547388e-01
1.047197551196597659e-01 3.441300715062139276e-03 3.101456984950297091e-01 2.678083096918184580e-01
1.221730476396030718e-01 3.928285065684654874e-03 3.516978705347451051e-01 3.000878858587619491e-01
1.396263401595463638e-01 4.413614363214114766e-03 3.926545129354288566e-01 3.313587404505455858e-01
1.570796326794896558e-01 4.897135106562084186e-03 4.330449245256527968e-01 3.617396560391444860e-01
1.745329251994329478e-01 5.378694372663667990e-03 4.728961778519024661e-01 3.913434276356752006e-01
1.919862177193762398e-01 5.858125547266192917e-03 5.122341983007353550e-01 4.202955592958992903e-01
2.094395102393195318e-01 6.335251556363464924e-03 5.510837989095757061e-01 4.487155401598477700e-01
2.268928027592628516e-01 6.809899496855267333e-03 5.894685632801794917e-01 4.767030460923019075e-01
2.443460952792061436e-01 7.281909697534802092e-03 6.274108749322961920e-01 5.043411967863554723e-01
2.617993877991494078e-01 7.751145369710625045e-03 6.649321085472814641e-01 5.316959997354775425e-01
2.792526803190927276e-01 8.217443905581359523e-03 7.020526866523204568e-01 5.588823379011077508e-01
2.967059728390360474e-01 8.680603096587876863e-03 7.387921537925713489e-01 5.860367360680392990e-01
3.141592653589793116e-01 9.140465385513933672e-03 7.751692330550213894e-01 6.131921079788587026e-01
3.316125578789225758e-01 9.596892512086086305e-03 8.112018601716350918e-01 6.404030882955679127e-01
3.490658503988658956e-01 1.004972838719760640e-02 8.469072788749442138e-01 6.677734838844927578e-01
3.665191429188092154e-01 1.049879230376704435e-02 8.823020603826913222e-01 6.954219098619474071e-01
3.839724354387524796e-01 1.094390296339110141e-02 9.174021586347450574e-01 7.234359638100497092e-01
4.014257279586957439e-01 1.138490121378468202e-02 9.522229683925903521e-01 7.518663577430768630e-01
4.188790204786390636e-01 1.182162924279745245e-02 9.867793346848362512e-01 7.807950457420907986e-01
4.363323129985823834e-01 1.225392519086411849e-02 1.021085615253192636e+00 8.103163991670535582e-01
4.537856055185257032e-01 1.268162667168664694e-02 1.055155714611713424e+00 8.405222251369469655e-01
4.712388980384689674e-01 1.310457073044743979e-02 1.089003093677068934e+00 8.715077030052247320e-01
4.886921905584122872e-01 1.352259491497630195e-02 1.122640827374131511e+00 9.033710150340285017e-01
5.061454830783556069e-01 1.393553783777112115e-02 1.156081626693641118e+00 9.362139787644135902e-01
5.235987755982988157e-01 1.434324024864348616e-02 1.189337847160700345e+00 9.701409802890820222e-01
5.410520681182421354e-01 1.474554458151075206e-02 1.222421539195832851e+00 1.005264284668067498e+00
5.585053606381854552e-01 1.514229020211261233e-02 1.255344466749255483e+00 1.041715718769090415e+00
5.759586531581287749e-01 1.553326753076698583e-02 1.288118112600810550e+00 1.079764061579948642e+00
5.934119456780720947e-01 1.591832157227244735e-02 1.320753720618831784e+00 1.119416914725408718e+00
6.108652381980153034e-01 1.629729885152901570e-02 1.353262316078848171e+00 1.160825716807922126e+00
6.283185307179586232e-01 1.667005078933913101e-02 1.385654707879149017e+00 1.204143175250710351e+00
6.457718232379019430e-01 1.703643719942735460e-02 1.417941520886897733e+00 1.249522675521012482e+00
6.632251157578451517e-01 1.739626491899320948e-02 1.450133221429412700e+00 1.297350144878566924e+00
6.806784082777884715e-01 1.774933230148110358e-02 1.482240118323157052e+00 1.347905046210395419e+00
6.981317007977317912e-01 1.809550486530077731e-02 1.514272383284078316e+00 1.401196376430011492e+00
7.155849933176750000e-01 1.843464774967444250e-02 1.546240082632335033e+00 1.457490053878074843e+00
7.330382858376184307e-01 1.876661204826904697e-02 1.578153180027682234e+00 1.517143751669054685e+00
7.504915783575616395e-01 1.909114246040687773e-02 1.610021545549406463e+00 1.581015312969451747e+00
7.679448708775049592e-01 1.940812924476993662e-02 1.641854990089104627e+00 1.648835293693710957e+00
7.853981633974482790e-01 1.971754602990006405e-02 1.673663273492442150e+00 1.720538712940740789e+00
8.028514559173914877e-01 2.001956626517327822e-02 1.705456107047801595e+00 1.795286401862847159e+00
8.203047484373349185e-01 2.031438142700144056e-02 1.737243182151363863e+00 1.873101748287429036e+00
8.377580409572781273e-01 2.060222102284316528e-02 1.769034188675413954e+00 1.953844371862305307e+00
8.552113334772214470e-01 2.088331134697222341e-02 1.800838815511687008e+00 2.037601496852961880e+00
8.726646259971647668e-01 2.115787692343261417e-02 1.832666768173220051e+00 2.124448078807017470e+00
8.901179185171079755e-01 2.142614146182468191e-02 1.864527797981911039e+00 2.214447578748315326e+00
9.075712110370514063e-01 2.168832394107306910e-02 1.896431704815891850e+00 2.307689690054909093e+00
9.250245035569946150e-01 2.194466337075820506e-02 1.928388344655223019e+00 2.404031712023583012e+00
9.424777960769379348e-01 2.219544931708861135e-02 1.960407663816159829e+00 2.502967953019837655e+00
9.599310885968812546e-01 2.244098871327735237e-02 1.992499708654962065e+00 2.604200832289376599e+00
9.773843811168245743e-01 2.268156821995001571e-02 2.024674627987023356e+00 2.707784371583634719e+00
9.948376736367677831e-01 2.291745470105946772e-02 2.056942703934595773e+00 2.813793443277882389e+00
1.012290966156711214e+00 2.314889689602860762e-02 2.089314373208017717e+00 2.922310424281726160e+00
1.029744258676654312e+00 2.337612711126511519e-02 2.121800228078080774e+00 3.033421158399561612e+00
1.047197551196597631e+00 2.359936271008791081e-02 2.154411040570829883e+00 3.147217327650948970e+00
1.064650843716540951e+00 2.381880739427523833e-02 2.187157795623981826e+00 3.263798385507922006e+00
1.082104136236484271e+00 2.403465240898381219e-02 2.220051693564992767e+00 3.383268032875038411e+00
1.099557428756427591e+00 2.424707762194703436e-02 2.253104168860689871e+00 3.505735917176342031e+00
1.117010721276370910e+00 2.445625242185478845e-02 2.286326932915790255e+00 3.631321759532196936e+00
1.134464013796314230e+00 2.466233660697676050e-02 2.319731980027294416e+00 3.760150543963924452e+00
1.151917306316257550e+00 2.486548117116367529e-02 2.353331604145105782e+00 3.892354079978626480e+00
1.169370598836200648e+00 2.506582893616655233e-02 2.387138449489741188e+00 4.028076898036490938e+00
1.186823891356144189e+00 2.526351531365199354e-02 2.421165520085514444e+00 4.167468245608878519e+00
1.204277183876087287e+00 2.545866874008283903e-02 2.455426199372800600e+00 4.310688829238785935e+00
1.221730476396030607e+00 2.565141115371268044e-02 2.489934308326029022e+00 4.457914725666483946e+00
1.239183768915973927e+00 2.584185875646589567e-02 2.524704116354309136e+00 4.609324359288338613e+00
1.256637061435917246e+00 2.603012270602565043e-02 2.559750371669766267e+00 4.765100555850233732e+00
1.274090353955860566e+00 2.621630829335034121e-02 2.595088365078135340e+00 4.925473386902964990e+00
1.291543646475803886e+00 2.640051456169863545e-02 2.630733940004691629e+00 5.090707531893851723e+00
1.308996938995747206e+00 2.658283906768332816e-02 2.666703546758227183e+00 5.260964640332209896e+00
1.326450231515690303e+00 2.676338093344584126e-02 2.703014302174058248e+00 5.436328620910734877e+00
1.343903524035633845e+00 2.694222556010210032e-02 2.739684005924057253e+00 5.617356402825395278e+00
1.361356816555576943e+00 2.711942982108956485e-02 2.776731229035413584e+00 5.805175382866399225e+00
1.378810109075520263e+00 2.729502708165045324e-02 2.814175351096719346e+00 6.000909411217496547e+00
1.396263401595463582e+00 2.746903568797192177e-02 2.852036619366791204e+00 6.205539245709966956e+00
1.413716694115406902e+00 2.764146382475777750e-02 2.890336241594103406e+00 6.419995496468425600e+00
1.431169986635350000e+00 2.781232192548854440e-02 2.929096420665201705e+00 6.644829908322403611e+00
1.448623279155293542e+00 2.798162459936737873e-02 2.968340477318786697e+00 6.880560075642869755e+00
1.466076571675236861e+00 2.814938760563380840e-02 3.008092898297093143e+00 7.127851240639623498e+00
1.483529864195180181e+00 2.831562639944647936e-02 3.048379466818428973e+00 7.387490335583350998e+00
1.500983156715123279e+00 2.848035576556192522e-02 3.089227346456516088e+00 7.660345559413389793e+00
1.518436449235066599e+00 2.864358931481112563e-02 3.130665199497064677e+00 7.947388576221489309e+00
1.535889741755009918e+00 2.880533966116082326e-02 3.172723295415251332e+00 8.249670167132165943e+00
1.553343034274953460e+00 2.896561972440164778e-02 3.215433710381317756e+00 8.568283870709327843e+00
1.570796326794896558e+00 2.912444321638954503e-02 3.258830491526063078e+00 8.904397696995173916e+00
1.588249619314839878e+00 2.928182440408814285e-02 3.302949625806535394e+00 9.259256471089139851e+00
1.605702911834782975e+00 2.943777764023981086e-02 3.347829234773199492e+00 9.634251308364445876e+00
1.623156204354726295e+00 2.959231730204079161e-02 3.393510840635099335e+00 1.003114817926907421e+01
1.640609496874669837e+00 2.974545764127779074e-02 3.440036934342432406e+00 1.045129464655336093e+01
1.658062789394613157e+00 2.989721263227568607e-02 3.487443992874666776e+00 1.089449911406152793e+01
1.675516081914556255e+00 3.004759598781191893e-02 3.535757320789633340e+00 1.135924931704930607e+01
1.692969374434499574e+00 3.019662151062212779e-02 3.584992433456383853e+00 1.184411254141104131e+01
1.710422666954442894e+00 3.034430337018579130e-02 3.635169004747547561e+00 1.235089517839599971e+01
1.727875959474386436e+00 3.049065608930813867e-02 3.686309864589280672e+00 1.288128141716053676e+01
1.745329251994329534e+00 3.063569407690004340e-02 3.738435269073624667e+00 1.343561461203542073e+01
1.762782544514272853e+00 3.077943116819123470e-02 3.791560097245114225e+00 1.401350040261782226e+01
1.780235837034215951e+00 3.092188060722511622e-02 3.845704615370300949e+00 1.461738457260639201e+01
1.797689129554159271e+00 3.106305544734766499e-02 3.900890153587150522e+00 1.524866062987164916e+01
1.815142422074102813e+00 3.120296944224593486e-02 3.957136789803924248e+00 1.590803219062885532e+01
1.832595714594046132e+00 3.134163716612409917e-02 4.014464577725883387e+00 1.659653504764279219e+01
1.850049007113989230e+00 3.147907391592513759e-02 4.072893176764884160e+00 1.731512442620903869e+01
1.867502299633932550e+00 3.161529437748823723e-02 4.132442017170419923e+00 1.806499018883588548e+01
1.884955592153875870e+00 3.175031166106974390e-02 4.193130343894370782e+00 1.884751770707601892e+01
1.902408884673818967e+00 3.188413727988058388e-02 4.254977307276468501e+00 1.966420391350871455e+01
1.919862177193762509e+00 3.201678190388781292e-02 4.318002062519400219e+00 2.051655128623381685e+01
1.937315469713705829e+00 3.214826308658324389e-02 4.382223884065752806e+00 2.140491852058848110e+01
1.954768762233649149e+00 3.227860979837290922e-02 4.447662300949153824e+00 2.232875504184213256e+01
1.972222054753592246e+00 3.240786248420918919e-02 4.514337211223183211e+00 2.328717786849584925e+01
1.989675347273535566e+00 3.253607296198556681e-02 4.582269177579426866e+00 2.427902625474198217e+01
2.007128639793478886e+00 3.266329900472310366e-02 4.651479072942866999e+00 2.530365426736882739e+01
2.024581932313422428e+00 3.278959631146709242e-02 4.721989494445161917e+00 2.636235705783078132e+01
2.042035224833365525e+00 3.291501785795560714e-02 4.793811365123124446e+00 2.745146344946042305e+01
2.059488517353308623e+00 3.303961389661948939e-02 4.866966870717186033e+00 2.857598250754570657e+01
2.076941809873252165e+00 3.316343203946310603e-02 4.941480155942015173e+00 2.973763875279462354e+01
2.094395102393195263e+00 3.328651829766539338e-02 5.017369273506096405e+00 3.093470645876192648e+01
2.111848394913138804e+00 3.340891779029478426e-02 5.094648408733172928e+00 3.216598491179986041e+01
2.129301687433081902e+00 3.353067475795225294e-02 5.173346562383867031e+00 3.343815392973155554e+01
2.146754979953025444e+00 3.365183256277129442e-02 5.253474573117848934e+00 3.474398266081173148e+01
2.164208272472968542e+00 3.377243369205036594e-02 5.335057061241813336e+00 3.608981374728870151e+01
2.181661564992911639e+00 3.389251980399159148e-02 5.418112482758698611e+00 3.747341043914123304e+01
2.199114857512855181e+00 3.401213175896754953e-02 5.502660034174581050e+00 3.889547932370174976e+01
2.216568150032798723e+00 3.413130962012737857e-02 5.588719348406589127e+00 4.035660229830820356e+01
2.234021442552741821e+00 3.425009265339677006e-02 5.676312595792038174e+00 4.185839002045965884e+01
2.251474735072684918e+00 3.436851933203863979e-02 5.765451060218470758e+00 4.339591890335457691e+01
2.268928027592628460e+00 3.448662751322940229e-02 5.856159253612975846e+00 4.497585355816816843e+01
2.286381320112572002e+00 3.460445466702250644e-02 5.948332899316277178e+00 4.653252765059605167e+01
2.303834612632515100e+00 3.472203789160873549e-02 6.041898540040173238e+00 4.807778576212206190e+01
2.321287905152458197e+00 3.483941391331621396e-02 6.136740917934645267e+00 4.958620105814532764e+01
2.338741197672401295e+00 3.495661908661040068e-02 6.232769286102919359e+00 5.106623256394109234e+01
2.356194490192344837e+00 3.507368943996807403e-02 6.329868867204452521e+00 5.250070558473359483e+01
2.373647782712288379e+00 3.519066086606394833e-02 6.427965214253903881e+00 5.390717438654087346e+01
2.391101075232231477e+00 3.530756917105055959e-02 6.526922615143517348e+00 5.524734088619372585e+01
2.408554367752174574e+00 3.542445007455834877e-02 6.626657233936857239e+00 5.654534772284450383e+01
2.426007660272118116e+00 3.554133920969566873e-02 6.727074107571922035e+00 5.779080748610230955e+01
2.443460952792061214e+00 3.565827212933189022e-02 6.828074872560989661e+00 5.897747081632670785e+01
2.460914245312004311e+00 3.577528445168095400e-02 6.929543940407288716e+00 6.009062550998179120e+01
2.478367537831947853e+00 3.589241200648278507e-02 7.031384572232159513e+00 6.113682204425100508e+01
2.495820830351891395e+00 3.600969084140596965e-02 7.133498984221202655e+00 6.211121168412997662e+01
2.513274122871834493e+00 3.612715722204776214e-02 7.235782931939451323e+00 6.300563949169509215e+01
2.530727415391777591e+00 3.624484763193570186e-02 7.338127296471914640e+00 6.381284386134924347e+01
2.548180707911721132e+00 3.636279883058964046e-02 7.440439244905886262e+00 6.453905047496493808e+01
2.565634000431664674e+00 3.648104806501983183e-02 7.542624378842871735e+00 6.517962556818403641e+01
2.583087292951607772e+00 3.659963311786994938e-02 7.644574813002103397e+00 6.572225608680695075e+01
2.600540585471550870e+00 3.671859230741707225e-02 7.746184243768960975e+00 6.616431858866967275e+01
2.617993877991494411e+00 3.683796448757168523e-02 7.847351779453394904e+00 6.650605192498643703e+01
2.635447170511437509e+00 3.695778906752996557e-02 7.947984553626076476e+00 6.674988846124037423e+01
2.652900463031380607e+00 3.707810622679904439e-02 8.047998012570284132e+00 6.689886327960496715e+01
2.670353755551324149e+00 3.719895704780014356e-02 8.147272446727161110e+00 6.692679912065953829e+01
2.687807048071267690e+00 3.732038351781913343e-02 8.245706821126313812e+00 6.684382674465192054e+01
2.705260340591210788e+00 3.744242852900653284e-02 8.343200100797353969e+00 6.664802869570236510e+01
2.722713633111153886e+00 3.756513589019157273e-02 8.439630628033723880e+00 6.632348893186946270e+01
2.740166925631096984e+00 3.768855055351980760e-02 8.534912864937888699e+00 6.589375748573260694e+01
2.757620218151040525e+00 3.781271881855628736e-02 8.628955275279921011e+00 6.535387706210568126e+01
2.775073510670984067e+00 3.793768833957727321e-02 8.721660139519832100e+00 6.469900121046714503e+01
2.792526803190927165e+00 3.806350812557021679e-02 8.812921376228722181e+00 6.392302271583366036e+01
2.809980095710870263e+00 3.819022856819771078e-02 8.902626749852093013e+00 6.302167529295050485e+01
2.827433388230813804e+00 3.831790176683843446e-02 8.990680034139247212e+00 6.200666337252688010e+01
2.844886680750756902e+00 3.844658173827213143e-02 9.076988313025317723e+00 6.088121018660849160e+01
2.862339973270700000e+00 3.857632442017351615e-02 9.161445632630041302e+00 5.963736300937961232e+01
2.879793265790643542e+00 3.870718767125955889e-02 9.243946312302178114e+00 5.827700651546741994e+01
2.897246558310587083e+00 3.883923143405001305e-02 9.324389273726495730e+00 5.680552195729543996e+01
2.914699850830530625e+00 3.897251820877385697e-02 9.402691889376754375e+00 5.523844136952801875e+01
2.932153143350473723e+00 3.910711313914810860e-02 9.478735820858387839e+00 5.355330511258263471e+01
2.949606435870416821e+00 3.924308401237778382e-02 9.552419165218744013e+00 5.176507101167037206e+01
2.967059728390360362e+00 3.938050136511731664e-02 9.623640536222403341e+00 4.987789819640294553e+01
2.984513020910303460e+00 3.951943908631933011e-02 9.692335222119275784e+00 4.792160961979243439e+01
3.001966313430246558e+00 3.965997463013692936e-02 9.758368869689828529e+00 4.585179473463951894e+01
3.019419605950190100e+00 3.980218901616678490e-02 9.821790921536091901e+00 4.380134460644942607e+01
3.036872898470133197e+00 3.994616702718948448e-02 9.882691033592454488e+00 4.180200761832256973e+01
3.054326190990076295e+00 4.009199799717276524e-02 9.941162019662383997e+00 3.985912910249654573e+01
3.071779483510019837e+00 4.023977600753549794e-02 9.997264982333572192e+00 3.795396776158528240e+01
3.089232776029963379e+00 4.038959990959229557e-02 1.005111712918634659e+01 3.612736207272030242e+01
3.106686068549906921e+00 4.054157397899367521e-02 1.010290064096739471e+01 3.442453547667911806e+01
3.124139361069850018e+00 4.069580865762864597e-02 1.015278198508541330e+01 3.283531410934165251e+01
3.141592653589793116e+00 4.085242059707881040e-02 1.020091018126142046e+01 3.134827447391373312e+01
3.159045946109736214e+00 4.101153324051141219e-02 1.024741799981365098e+01 2.995268299756903474e+01
3.176499238629679756e+00 4.117327805592108092e-02 1.029242424883882912e+01 2.863915035809687737e+01
3.193952531149622853e+00 4.133779469984941168e-02 1.033603572745103527e+01 2.739964725144191604e+01
3.211405823669565951e+00 4.150523162036230673e-02 1.037834878699927721e+01 2.622717193385580714e+01
3.228859116189509493e+00 4.167574714101971584e-02 1.041945066389628671e+01 2.511554237824408276e+01
3.246312408709452590e+00 4.184950975975915838e-02 1.045942060327331546e+01 2.405939841747834507e+01
3.263765701229396576e+00 4.202670085272761091e-02 1.049833081667266832e+01 2.305377124607846540e+01
3.281218993749339674e+00 4.220751664321206742e-02 1.053624729966230689e+01 2.209416779595988345e+01
3.298672286269282772e+00 4.239214719982470347e-02 1.057323052974786570e+01 2.117917123814584102e+01
3.316125578789226314e+00 4.258072663107921596e-02 1.060933607334772510e+01 2.031270555932594135e+01
3.333578871309169411e+00 4.277333646371272308e-02 1.064461512490474426e+01 1.949702778210197351e+01
3.351032163829112509e+00 4.297005743617446361e-02 1.067911495282929657e+01 1.872843671158549128e+01
3.368485456349056051e+00 4.317098417330630239e-02 1.071287928925213251e+01 1.800224626860829247e+01
3.385938748868999149e+00 4.337621360010538579e-02 1.074594871100315174e+01 1.731536824818454079e+01
3.403392041388942246e+00 4.358583839007149074e-02 1.077836091391262663e+01 1.666551084104975544e+01
3.420845333908885788e+00 4.379995092094347148e-02 1.081015100856045308e+01 1.605023873754066344e+01
3.438298626428828886e+00 4.401864747005029832e-02 1.084135175317526212e+01 1.546701348108127938e+01
