# angles(rad), pulling distance(m),                                     elastic band force(n), cable force(n)
0.000000000000000000e+00 4.881029217615229818e-04 4.376903102950615437e-02 3.924844519160362172e-02
1.745329251994329547e-02 9.756793633330183152e-04 8.716019078328308967e-02 7.756695032798349709e-02
3.490658503988659095e-02 1.462583941882584018e-03 1.301037604624211141e-01 1.147477380389248236e-01
5.235987755982988295e-02 1.948672460278042277e-03 1.725626381863668846e-01 1.507300764614172006e-01
6.981317007977318190e-02 2.433802675920083893e-03 2.145323389929232327e-01 1.855967282711432076e-01
8.726646259971647390e-02 2.917834300742267687e-03 2.560388422329741287e-01 2.195574935548045836e-01
1.047197551196597659e-01 3.400629001211020498e-03 2.971143412904939662e-01 2.527807333801331269e-01
1.221730476396030718e-01 3.882049314600854745e-03 3.377819927402426203e-01 2.853390263081448386e-01
1.396263401595463638e-01 4.361952836843632254e-03 3.780591589514464279e-01 3.172960996742193451e-01
1.570796326794896558e-01 4.840190282326923416e-03 4.179638118304614403e-01 3.487535529600693796e-01
1.745329251994329478e-01 5.316608494373221624e-03 4.575150518948333800e-01 3.798193938227882871e-01
1.919862177193762398e-01 5.791062235643965744e-03 4.967316037216905067e-01 4.105795568017944208e-01
2.094395102393195318e-01 6.263416464200943258e-03 5.356310270156211528e-01 4.411040865008386547e-01
2.268928027592628516e-01 6.733540894208981699e-03 5.742298780457730789e-01 4.714627044455469984e-01
2.443460952792061436e-01 7.201303934070239603e-03 6.125442147573401108e-01 5.017332130793461520e-01
2.617993877991494078e-01 7.666548763861594229e-03 6.505896906883886777e-01 5.320208379139600430e-01
2.792526803190927276e-01 8.129105616244632765e-03 6.883815315466138562e-01 5.624217900118381186e-01
2.967059728390360474e-01 8.588864959850573896e-03 7.259344989366655065e-01 5.929405230151759687e-01
3.141592653589793116e-01 9.045703670843178307e-03 7.632628893359671984e-01 6.236637663329109849e-01
3.316125578789225758e-01 9.499428042748760126e-03 8.003805926822222805e-01 6.547651226780653033e-01
3.490658503988658956e-01 9.949903245882001784e-03 8.373011574439197524e-01 6.862449118938258597e-01
3.665191429188092154e-01 1.039701822171731384e-02 8.740377952649168725e-01 7.181421258932941809e-01
3.839724354387524796e-01 1.084063419623651318e-02 9.106034120880001081e-01 7.505765652440674618e-01
4.014257279586957439e-01 1.128058818255497399e-02 9.470106406383062003e-01 7.836736091836143947e-01
4.188790204786390636e-01 1.171672618958622368e-02 9.832718428028807134e-01 8.175077269075160524e-01
4.363323129985823834e-01 1.214891083886421308e-02 1.019399139892873007e+00 8.521389096470101121e-01
4.537856055185257032e-01 1.257700541916485608e-02 1.055404450293256469e+00 8.876581619899946984e-01
4.712388980384689674e-01 1.300086964196687719e-02 1.091299492024633944e+00 9.241695500672620911e-01
4.886921905584122872e-01 1.342036224632011353e-02 1.127095802932201574e+00 9.617779042035834447e-01
5.061454830783556069e-01 1.383534090543907420e-02 1.162804777571025294e+00 1.000595220976984390e+00
5.235987755982988157e-01 1.424566294394977867e-02 1.198437671139560123e+00 1.040738687574167765e+00
5.410520681182421354e-01 1.465118577052894333e-02 1.234005611146736792e+00 1.082332107320182146e+00
5.585053606381854552e-01 1.505176731471107553e-02 1.269519635509502864e+00 1.125507450837406553e+00
5.759586531581287749e-01 1.544726645698362572e-02 1.304990700316454699e+00 1.170404806377430829e+00
5.934119456780720947e-01 1.583754319272838093e-02 1.340429684881164762e+00 1.217173932285074756e+00
6.108652381980153034e-01 1.622245953379226197e-02 1.375847426558696629e+00 1.265974019364000558e+00
6.283185307179586232e-01 1.660187784400074876e-02 1.411254735412419858e+00 1.316982626920925714e+00
6.457718232379019430e-01 1.697566524229350560e-02 1.446662395795023537e+00 1.370376075612786515e+00
6.632251157578451517e-01 1.734364031130546449e-02 1.482081193896555238e+00 1.426551388865773262e+00
6.806784082777884715e-01 1.770565747555444963e-02 1.517521941619022208e+00 1.485623268935341690e+00
6.981317007977317912e-01 1.806158161200598772e-02 1.552995477582916006e+00 1.547808515461637668e+00
7.155849933176750000e-01 1.841128013167315017e-02 1.588512685685653958e+00 1.613376450235927129e+00
7.330382858376184307e-01 1.875462246735225269e-02 1.624084527643061104e+00 1.682626117997411797e+00
7.504915783575616395e-01 1.909148050780105910e-02 1.659722046282441354e+00 1.755884326874781465e+00
7.679448708775049592e-01 1.942170883539324697e-02 1.695436376316535432e+00 1.833621444201309236e+00
7.853981633974482790e-01 1.974518004372826860e-02 1.731238782448544455e+00 1.916167881517052640e+00
8.028514559173914877e-01 2.006202374360594592e-02 1.767140667792243658e+00 2.002365256615750599e+00
8.203047484373349185e-01 2.037237669080484148e-02 1.803153579894108738e+00 2.092353623994223089e+00
8.377580409572781273e-01 2.067638127293739206e-02 1.839289250432331269e+00 2.186281203785857219e+00
8.552113334772214470e-01 2.097417638377345808e-02 1.875559611288564854e+00 2.284363357001576667e+00
8.726646259971647668e-01 2.126590029891647915e-02 1.911976798349506623e+00 2.386805232870190974e+00
8.901179185171079755e-01 2.155169062873217925e-02 1.948553191531205320e+00 2.493822926579094101e+00
9.075712110370514063e-01 2.183168490749605103e-02 1.985301438971366350e+00 2.605637116755283866e+00
9.250245035569946150e-01 2.210602093431588214e-02 2.022234460456473926e+00 2.722472496294278788e+00
9.424777960769379348e-01 2.237483700545196338e-02 2.059365489762912560e+00 2.844560596019799270e+00
9.599310885968812546e-01 2.263827230912511881e-02 2.096708105359426089e+00 2.972136372946973637e+00
9.773843811168245743e-01 2.289646633467224551e-02 2.134276235011118406e+00 3.105446229420520954e+00
9.948376736367677831e-01 2.314956097110383582e-02 2.172084205046645344e+00 3.244718880529966043e+00
1.012290966156711214e+00 2.339769595697314269e-02 2.210146774015371740e+00 3.390245987370585468e+00
1.029744258676654312e+00 2.364099942556308065e-02 2.248479140986025637e+00 3.542470152918344883e+00
1.047197551196597631e+00 2.387960712427757842e-02 2.287097007876842003e+00 3.701590866196400320e+00
1.064650843716540951e+00 2.411366241177080941e-02 2.326016609840355187e+00 3.867788742782612754e+00
1.082104136236484271e+00 2.434330864882054343e-02 2.365254735080533965e+00 4.041353462278483022e+00
1.099557428756427591e+00 2.456868290693399459e-02 2.404828802092145779e+00 4.222703025717438052e+00
1.117010721276370910e+00 2.478991635592149925e-02 2.444756879696782903e+00 4.412282268515264505e+00
1.134464013796314230e+00 2.500715138262495779e-02 2.485057739187543913e+00 4.610212464039645575e+00
1.151917306316257550e+00 2.522053165500977648e-02 2.525750930204948119e+00 4.816793226313601295e+00
1.169370598836200648e+00 2.543018780007197041e-02 2.566856801188285520e+00 5.032663577356536244e+00
1.186823891356144189e+00 2.563625709803773328e-02 2.608396596947578416e+00 5.258049741812579114e+00
1.204277183876087287e+00 2.583888257840954300e-02 2.650392501375960830e+00 5.493170453254235142e+00
1.221730476396030607e+00 2.603820355553698729e-02 2.692867719809766580e+00 5.738490060638708812e+00
1.239183768915973927e+00 2.623435630549271827e-02 2.735846579993954197e+00 5.994489889817184114e+00
1.256637061435917246e+00 2.642747650751151381e-02 2.779354576809981214e+00 6.261600226924468160e+00
1.274090353955860566e+00 2.661770609754568473e-02 2.823418475710939290e+00 6.540035451187016236e+00
1.291543646475803886e+00 2.680517820894955452e-02 2.868066395312878214e+00 6.830519850234614943e+00
1.308996938995747206e+00 2.698997566736034692e-02 2.913328096403493106e+00 7.135497782939373757e+00
1.326450231515690303e+00 2.717214168154805098e-02 2.959234995730599227e+00 7.457444992690783536e+00
1.343903524035633845e+00 2.735171475057279061e-02 3.005819823907747601e+00 7.797694876447073931e+00
1.361356816555576943e+00 2.752873264441017126e-02 3.053117055807518465e+00 8.157592561706300316e+00
1.378810109075520263e+00 2.770323174038694797e-02 3.101165251977264781e+00 8.539035434409075975e+00
1.396263401595463582e+00 2.787524732025037713e-02 3.150001217734883951e+00 8.942989450600553170e+00
1.413716694115406902e+00 2.804481478283633519e-02 3.199642829654405496e+00 9.367093498274487118e+00
1.431169986635350000e+00 2.821197009449265963e-02 3.250091360836210974e+00 9.808981463776204279e+00
1.448623279155293542e+00 2.837675115798444364e-02 3.301339366708576417e+00 1.026738483576961869e+01
1.466076571675236861e+00 2.853919824441908393e-02 3.353380717828935431e+00 1.074284969998480932e+01
1.483529864195180181e+00 2.869935113124904777e-02 3.406211125123185912e+00 1.123623336627847458e+01
1.500983156715123279e+00 2.885724604898067674e-02 3.459822160913151645e+00 1.174734768923313943e+01
1.518436449235066599e+00 2.901291645049440537e-02 3.514209736924170269e+00 1.227782207324551145e+01
1.535889741755009918e+00 2.916639723265672043e-02 3.569370829070912965e+00 1.282834179200702351e+01
1.553343034274953460e+00 2.931772593820424974e-02 3.625297322189088955e+00 1.339799775641846402e+01
1.570796326794896558e+00 2.946694143357641085e-02 3.681981444520518565e+00 1.398714564480787637e+01
1.588249619314839878e+00 2.961408134341951548e-02 3.739418416257937139e+00 1.459705052952734938e+01
1.605702911834782975e+00 2.975918178336519823e-02 3.797603992828378683e+00 1.522847056781141539e+01
1.623156204354726295e+00 2.990227904773457707e-02 3.856533070269971386e+00 1.588164085145388960e+01
1.640609496874669837e+00 3.004341225869523735e-02 3.916200348828105415e+00 1.655662869940114845e+01
1.658062789394613157e+00 3.018262360272188152e-02 3.976600260435460221e+00 1.725335718202056867e+01
1.675516081914556255e+00 3.031996082839730211e-02 4.037726995432784349e+00 1.797131599444664118e+01
1.692969374434499574e+00 3.045548385722062976e-02 4.099573927058362877e+00 1.870870733647137740e+01
1.710422666954442894e+00 3.058926586480236257e-02 4.162134709702305813e+00 1.946348463558643971e+01
1.727875959474386436e+00 3.072139244569693436e-02 4.225404009838877428e+00 2.023350280365535525e+01
1.745329251994329534e+00 3.085195050608961417e-02 4.289376480011371839e+00 2.101762297178819239e+01
1.762782544514272853e+00 3.098102037248003787e-02 4.354046777874494012e+00 2.181589784740040727e+01
1.780235837034215951e+00 3.110867562336835576e-02 4.419408765687895091e+00 2.262823815512652814e+01
1.797689129554159271e+00 3.123498348447482920e-02 4.485455769723077246e+00 2.345466962446624493e+01
1.815142422074102813e+00 3.136000789978059949e-02 4.552182073600221202e+00 2.429527733477184981e+01
1.832595714594046132e+00 3.148381096899618287e-02 4.619582056182162333e+00 2.514959864042982218e+01
1.850049007113989230e+00 3.160645295575727903e-02 4.687650253202091832e+00 2.601718297478680242e+01
1.867502299633932550e+00 3.172799227936397293e-02 4.756381347003464377e+00 2.689757379051200559e+01
1.884955592153875870e+00 3.184848538744886048e-02 4.825770161930025282e+00 2.779034236616861264e+01
1.902408884673818967e+00 3.196798665601548184e-02 4.895811739434375198e+00 2.869512445410813939e+01
1.919862177193762509e+00 3.208654838675227550e-02 4.966501084403153854e+00 2.961146959153077063e+01
1.937315469713705829e+00 3.220422080705626772e-02 5.037833723841720790e+00 3.053918459787604434e+01
1.954768762233649149e+00 3.232105222307134207e-02 5.109799141090478614e+00 3.147516650816579187e+01
1.972222054753592246e+00 3.243708953634160536e-02 5.182392299891303900e+00 3.242114252662485541e+01
1.989675347273535566e+00 3.255237835272790231e-02 5.255608586263435633e+00 3.337671036732445629e+01
2.007128639793478886e+00 3.266696298240779478e-02 5.329443595868040617e+00 3.434138768763455118e+01
2.024581932313422428e+00 3.278088644035949406e-02 5.403893189751478587e+00 3.531473329549528017e+01
2.042035224833365525e+00 3.289419055353482585e-02 5.478950387667085309e+00 3.629476919170306104e+01
2.059488517353308623e+00 3.300691620226704759e-02 5.554606000159880708e+00 3.727963634048572317e+01
2.076941809873252165e+00 3.311910335329289190e-02 5.630856215555963828e+00 3.827122762049604887e+01
2.094395102393195263e+00 3.323079105975258740e-02 5.707696804086796583e+00 3.926867114420235794e+01
2.111848394913138804e+00 3.334201746119898335e-02 5.785124102911624711e+00 4.027160160087798602e+01
2.129301687433081902e+00 3.345281985532161384e-02 5.863129531169501973e+00 4.127671912071885174e+01
2.146754979953025444e+00 3.356323494277495267e-02 5.941705372179679756e+00 4.228357803466052900e+01
2.164208272472968542e+00 3.367329887937259292e-02 6.020847966443935384e+00 4.329352033600268612e+01
2.181661564992911639e+00 3.378304727608723301e-02 6.100553151825340414e+00 4.430549643104571800e+01
2.199114857512855181e+00 3.389251519905069066e-02 6.180817350844468372e+00 4.531906155876057340e+01
2.216568150032798723e+00 3.400173718597365030e-02 6.261629029736158536e+00 4.632883623027543507e+01
2.234021442552741821e+00 3.411074742199225046e-02 6.342983681135032192e+00 4.733786890612979903e+01
2.251474735072684918e+00 3.421957984636444378e-02 6.424877190108442271e+00 4.834549453955092702e+01
2.268928027592628460e+00 3.432826815396809728e-02 6.507305457515098368e+00 4.935083875855940505e+01
2.286381320112572002e+00 3.443684579530097156e-02 6.590263931066791869e+00 5.035274567698122183e+01
2.303834612632515100e+00 3.454534597680464919e-02 6.673739516336785194e+00 5.134501199399475269e+01
2.321287905152458197e+00 3.465380173872043001e-02 6.757701372591210287e+00 5.231526119344801629e+01
2.338741197672401295e+00 3.476224613354225029e-02 6.842105381997782843e+00 5.325320206468618522e+01
2.356194490192344837e+00 3.487071225091565446e-02 6.926904220072777285e+00 5.415455476264357060e+01
2.373647782712288379e+00 3.497923321763778820e-02 7.012049831793901511e+00 5.501658254444292595e+01
2.391101075232231477e+00 3.508784219765738455e-02 7.097493496197094132e+00 5.583662163878866380e+01
2.408554367752174574e+00 3.519657240529019959e-02 7.183186207962751979e+00 5.661229925695889165e+01
2.426007660272118116e+00 3.530545726634840009e-02 7.269078960190736183e+00 5.734141477386566521e+01
2.443460952792061214e+00 3.541453052577099581e-02 7.355123438185237283e+00 5.802226505139726953e+01
2.460914245312004311e+00 3.552382624959028040e-02 7.441271392324837031e+00 5.865282595193539095e+01
2.478367537831947853e+00 3.563337882493183145e-02 7.527478526258993163e+00 5.923387446406818668e+01
2.495820830351891395e+00 3.574322296032784313e-02 7.613697819581159543e+00 5.976173813978844862e+01
2.513274122871834493e+00 3.585339377098280961e-02 7.699870171123160745e+00 6.022610846459178902e+01
2.530727415391777591e+00 3.596392697922336928e-02 7.785953132192490855e+00 6.063679061115291802e+01
2.548180707911721132e+00 3.607485894327699949e-02 7.871904295169978916e+00 6.099227889720135920e+01
2.565634000431664674e+00 3.618622665727202342e-02 7.957668488442637411e+00 6.128194552624430713e+01
2.583087292951607772e+00 3.629806775123759627e-02 8.043194404373869233e+00 6.150704933722983014e+01
2.600540585471550870e+00 3.641042053198807749e-02 8.128436016805535402e+00 6.167012404961317174e+01
2.617993877991494411e+00 3.652332422631078546e-02 8.213346853127614366e+00 6.176964841460468847e+01
2.635447170511437509e+00 3.663681907052263736e-02 8.297879238798342882e+00 6.180364693517945796e+01
2.652900463031380607e+00 3.675094631061009975e-02 8.381985022333141799e+00 6.177082853664057183e+01
2.670353755551324149e+00 3.686574820222919546e-02 8.465615926616960607e+00 6.167033532962494746e+01
2.687807048071267690e+00 3.698126804968213804e-02 8.548723551211917737e+00 6.150147557540666554e+01
2.705260340591210788e+00 3.709755049809194266e-02 8.631259372357289905e+00 6.126359476931347814e+01
2.722713633111153886e+00 3.721464166598279638e-02 8.713174742969520992e+00 6.095617211238060662e+01
2.740166925631096984e+00 3.733258914594109884e-02 8.794420444487002442e+00 6.057856078863407845e+01
2.757620218151040525e+00 3.745144200461610062e-02 8.874945650238794670e+00 6.012954442060483728e+01
2.775073510670984067e+00 3.757125088654756501e-02 8.954700501247614852e+00 5.961000493387072652e+01
2.792526803190927165e+00 3.769206840682302190e-02 9.033636862219381669e+00 5.902144147787788597e+01
2.809980095710870263e+00 3.781394924388448847e-02 9.111708321543229516e+00 5.836556285196611782e+01
2.827433388230813804e+00 3.793695013952845529e-02 9.188870079387937650e+00 5.764424431384030356e+01
2.844886680750756902e+00 3.806112992270756223e-02 9.265075531187966007e+00 5.685702203209616101e+01
2.862339973270700000e+00 3.818654990627338985e-02 9.340272319322483696e+00 5.600052389946009157e+01
2.879793265790643542e+00 3.831327421458465693e-02 9.414407439744017836e+00 5.507532363313286083e+01
2.897246558310587083e+00 3.844136979332290344e-02 9.487439985285442745e+00 5.409178830541669214e+01
2.914699850830530625e+00 3.857090642644338263e-02 9.559325802528942262e+00 5.304908202859704147e+01
2.932153143350473723e+00 3.870195717849594930e-02 9.630003327386793543e+00 5.193597052228680155e+01
2.949606435870416821e+00 3.883459886820946755e-02 9.699426103621998863e+00 5.076541843337601989e+01
2.967059728390360362e+00 3.896891209170457587e-02 9.767551256674945392e+00 4.954210069552183882e+01
2.984513020910303460e+00 3.910498130128163552e-02 9.834329885825573214e+00 4.826389970455011991e+01
3.001966313430246558e+00 3.924289556803650658e-02 9.899712854805473583e+00 4.693297029567719392e+01
3.019419605950190100e+00 3.938274900967960596e-02 9.963651198100949458e+00 4.555192516508039091e+01
3.036872898470133197e+00 3.952464080103006150e-02 1.002611740354512548e+01 4.413881194793092533e+01
3.054326190990076295e+00 3.966867564101432542e-02 1.008712621715965518e+01 4.272602402003263933e+01
3.071779483510019837e+00 3.981496455646005295e-02 1.014670934410098013e+01 4.132730556134408317e+01
3.089232776029963379e+00 3.996362498422367099e-02 1.020489837881179085e+01 3.994426727529515375e+01
3.106686068549906921e+00 4.011478151941513109e-02 1.026172492828342264e+01 3.857844575246146945e+01
3.124139361069850018e+00 4.026856767881692445e-02 1.031721664188578913e+01 3.722831971954636998e+01
3.141592653589793116e+00 4.042512614588721076e-02 1.037140481357052479e+01 3.589760906367046545e+01
3.159045946109736214e+00 4.058460830542170300e-02 1.042432123633871122e+01 3.458805619535007025e+01
3.176499238629679756e+00 4.074717355882581660e-02 1.047599758651210067e+01 3.330117035221796584e+01
3.193952531149622853e+00 4.091299076261908918e-02 1.052646540625161542e+01 3.203815686575344301e+01
3.211405823669565951e+00 4.108224979013903183e-02 1.057575615316322626e+01 3.079817529278145471e+01
3.228859116189509493e+00 4.125516594002397869e-02 1.062390122709782503e+01 2.958014681640905152e+01
3.246312408709452590e+00 4.143195141883155436e-02 1.067093200494089800e+01 2.838820450005223250e+01
3.263765701229396576e+00 4.161278310502537076e-02 1.071687986164746675e+01 2.723071772370288102e+01
3.281218993749339674e+00 4.179780122636917589e-02 1.076177621793223338e+01 2.611444413271251719e+01
3.298672286269282772e+00 4.198711021215356665e-02 1.080565248244245957e+01 2.504432975332672484e+01
3.316125578789226314e+00 4.218079485229526276e-02 1.084854026254932435e+01 2.402202925953685053e+01
3.333578871309169411e+00 4.237894701407732972e-02 1.089047099795737950e+01 2.304519182519462817e+01
3.351032163829112509e+00 4.258166394324003345e-02 1.093147374422679974e+01 2.211065677329806789e+01
3.368485456349056051e+00 4.278904107278302255e-02 1.097157998675999480e+01 2.121877416719357612e+01
3.385938748868999149e+00 4.300117243060623540e-02 1.101082163821475213e+01 2.036864466390733241e+01
3.403392041388942246e+00 4.321815255120139282e-02 1.104923047679990056e+01 1.955884754370394418e+01
3.420845333908885788e+00 4.344007647938420008e-02 1.108683827930387267e+01 1.878804272327329628e+01
3.438298626428828886e+00 4.366703944050271541e-02 1.112367613536367550e+01 1.805459262211545024e+01
