# angles(rad), pulling distance(m),                                     elastic band force(n), cable force(n)
0.000000000000000000e+00 6.543917457376540727e-04 4.836379943918339003e-02 3.574398838965924668e-02
1.745329251994329547e-02 1.307638458588566066e-03 9.599262846908887536e-02 6.998912355076673808e-02
3.490658503988659095e-02 1.959439936052505358e-03 1.427689076719664552e-01 1.024575506139938641e-01
5.235987755982988295e-02 2.609501732995943204e-03 1.886856981751319495e-01 1.332772009490182930e-01
6.981317007977318190e-02 3.257537576240919584e-03 2.338038323803718344e-01 1.627810065908543158e-01
8.726646259971647390e-02 3.903269320490130104e-03 2.781658827520308574e-01 1.911011656499908284e-01
1.047197551196597659e-01 4.546422247420068424e-03 3.218058636844982057e-01 2.183555600405052699e-01
1.221730476396030718e-01 5.186716257494426024e-03 3.647606843944938837e-01 2.447036760253504251e-01
1.396263401595463638e-01 5.823861496636894425e-03 4.070648111380584244e-01 2.702762306818239924e-01
1.570796326794896558e-01 6.457540955306189517e-03 4.487498228934843625e-01 2.951988010127786777e-01
1.745329251994329478e-01 7.087433428920639211e-03 4.898458420879459596e-01 3.195896914478010831e-01
1.919862177193762398e-01 7.713305096878299814e-03 5.303815497962246495e-01 3.435111793214772336e-01
2.094395102393195318e-01 8.334898617352553066e-03 5.703840520792742286e-01 3.670692919724753422e-01
2.268928027592628516e-01 8.951847897790838823e-03 6.098790441145462982e-01 3.904237958211349002e-01
2.443460952792061436e-01 9.563873045444587842e-03 6.488909738077127676e-01 4.136184460027838017e-01
2.617993877991494078e-01 1.017071184359875577e-02 6.874431218107649455e-01 4.367289806838609012e-01
2.792526803190927276e-01 1.077207988183830761e-02 7.255576790338218451e-01 4.598566587795106519e-01
2.967059728390360474e-01 1.136768944673105519e-02 7.632558151738452201e-01 4.830903216819454338e-01
3.141592653589793116e-01 1.195724734994603293e-02 8.005577773558036903e-01 5.065215099747362171e-01
3.316125578789225758e-01 1.254045959356567784e-02 8.374829285399068013e-01 5.302389325456159375e-01
3.490658503988658956e-01 1.311703429381135336e-02 8.740498409723623796e-01 5.543306701251302648e-01
3.665191429188092154e-01 1.368668484980294087e-02 9.102763220089077345e-01 5.788830989530162618e-01
3.839724354387524796e-01 1.424913356205581398e-02 9.461794892437003224e-01 6.039811221253943430e-01
4.014257279586957439e-01 1.480411289164020906e-02 9.817758128226976577e-01 6.297101108511736767e-01
4.188790204786390636e-01 1.535134529974560048e-02 1.017081149545277396e+00 6.561817598340917712e-01
4.363323129985823834e-01 1.589044188531614152e-02 1.052110809581541018e+00 6.836452866996893807e-01
4.537856055185257032e-01 1.642116254028548952e-02 1.086879568797812556e+00 7.120403864213442624e-01
4.712388980384689674e-01 1.694329522787412987e-02 1.121401722557256342e+00 7.414437673116264227e-01
4.886921905584122872e-01 1.745644845988067809e-02 1.155691121361017260e+00 7.722440643968838669e-01
5.061454830783556069e-01 1.796034581973750266e-02 1.189761183894421093e+00 8.044344178865476813e-01
5.235987755982988157e-01 1.845482020944330670e-02 1.223624951932218430e+00 8.379918636867507153e-01
5.410520681182421354e-01 1.893938254603309487e-02 1.257295105586599959e+00 8.736403182288691172e-01
5.585053606381854552e-01 1.941392860539462029e-02 1.290783982742104374e+00 9.109106561858790752e-01
5.759586531581287749e-01 1.987802459112009493e-02 1.324103625268460815e+00 9.506365238826903763e-01
5.934119456780720947e-01 2.033149818892606570e-02 1.357265786024179910e+00 9.925575910514149447e-01
6.108652381980153034e-01 2.077396271919641074e-02 1.390281951117348092e+00 1.037411482364386517e+00
6.283185307179586232e-01 2.120522828288038189e-02 1.423163377831796694e+00 1.085077183328156725e+00
6.457718232379019430e-01 2.162489142792814803e-02 1.455921098700146743e+00 1.136450925471018891e+00
6.632251157578451517e-01 2.203281211243302701e-02 1.488565943065550901e+00 1.191261080521024418e+00
6.806784082777884715e-01 2.242850864313959691e-02 1.521108569973126601e+00 1.250980608552748397e+00
6.981317007977317912e-01 2.281194545586551214e-02 1.553559471209905229e+00 1.314803464155930746e+00
7.155849933176750000e-01 2.318252877933757450e-02 1.585928990115823334e+00 1.385268984800070768e+00
7.330382858376184307e-01 2.354026925144686241e-02 1.618227352289155041e+00 1.461005873751412221e+00
7.504915783575616395e-01 2.388460659848311643e-02 1.650464668526965051e+00 1.545186774440536537e+00
7.679448708775049592e-01 2.421546700700904012e-02 1.682650949906797866e+00 1.636892040937536486e+00
7.853981633974482790e-01 2.453242508379974846e-02 1.714796138119940805e+00 1.739108375630208814e+00
8.028514559173914877e-01 2.483535526188552361e-02 1.746910109122252086e+00 1.851919176309702264e+00
8.203047484373349185e-01 2.512447695110979484e-02 1.779002684291573377e+00 1.974697143103822272e+00
8.377580409572781273e-01 2.540027190818685762e-02 1.811083661168587433e+00 2.106685839076190891e+00
8.552113334772214470e-01 2.566393372930460270e-02 1.843162818705642803e+00 2.242535918816116691e+00
8.726646259971647668e-01 2.591654691332595864e-02 1.875249924984422112e+00 2.381955790445270615e+00
8.901179185171079755e-01 2.615907550443045265e-02 1.907354768279717616e+00 2.524870394260897211e+00
9.075712110370514063e-01 2.639236099173700167e-02 1.939487164873953118e+00 2.671420819644373168e+00
9.250245035569946150e-01 2.661714829543654695e-02 1.971656964296740533e+00 2.821681119354810807e+00
9.424777960769379348e-01 2.683409846709257363e-02 2.003874080227840082e+00 2.975754435280379528e+00
9.599310885968812546e-01 2.704380135802987931e-02 2.036148501787624632e+00 3.133743879795348963e+00
9.773843811168245743e-01 2.724678535311243419e-02 2.068490297279441670e+00 3.295761823202418395e+00
9.948376736367677831e-01 2.744352562995909864e-02 2.100909644943239396e+00 3.461930687569597875e+00
1.012290966156711214e+00 2.763445127197838511e-02 2.133416848107937192e+00 3.632378248565927947e+00
1.029744258676654312e+00 2.781995108474658376e-02 2.166022338334296471e+00 3.807239432143623148e+00
1.047197551196597631e+00 2.800037824032960976e-02 2.198736706946635255e+00 3.986666135709969971e+00
1.064650843716540951e+00 2.817605499069162842e-02 2.231570723718256932e+00 4.170809763877951326e+00
1.082104136236484271e+00 2.834727580020428642e-02 2.264535340269699937e+00 4.359840335509173492e+00
1.099557428756427591e+00 2.851431079920792311e-02 2.297641724355779402e+00 4.553932401739806402e+00
1.117010721276370910e+00 2.867740820627335402e-02 2.330901280909533302e+00 4.753278692071789102e+00
1.134464013796314230e+00 2.883679690214789940e-02 2.364325656812844567e+00 4.958074917267429882e+00
1.151917306316257550e+00 2.899268810961970130e-02 2.397926780874484631e+00 5.168542636984054361e+00
1.169370598836200648e+00 2.914527769014937930e-02 2.431716884896474085e+00 5.384900214513552719e+00
1.186823891356144189e+00 2.929474695784572286e-02 2.465708512293757870e+00 5.607403201470994247e+00
1.204277183876087287e+00 2.944126488536757610e-02 2.499914566618796741e+00 5.836296958334005858e+00
1.221730476396030607e+00 2.958498864373209150e-02 2.534348328906335102e+00 6.071866537893543914e+00
1.239183768915973927e+00 2.972606487780018666e-02 2.569023476950731855e+00 6.314406532130598215e+00
1.256637061435917246e+00 2.986463101232034872e-02 2.603954140875827772e+00 6.564219120802586183e+00
1.274090353955860566e+00 3.000081541611830313e-02 2.639154914480156489e+00 6.821654467070840333e+00
1.291543646475803886e+00 3.013473863976036740e-02 2.674640898024041036e+00 7.087065283520383119e+00
1.308996938995747206e+00 3.026651422246351766e-02 2.710427748229783607e+00 7.360822834522495306e+00
1.326450231515690303e+00 3.039624874744359731e-02 2.746531693726264933e+00 7.643349416038400790e+00
1.343903524035633845e+00 3.052404269177047547e-02 2.782969608382173998e+00 7.935087191677603791e+00
1.361356816555576943e+00 3.064999122167392023e-02 2.819759039314060356e+00 8.236486007493239114e+00
1.378810109075520263e+00 3.077418422315925800e-02 2.856918260816878163e+00 8.548054817861206800e+00
1.396263401595463582e+00 3.089670656010920155e-02 2.894466340534418425e+00 8.870354222718232151e+00
1.413716694115406902e+00 3.101763896974446891e-02 2.932423176642763529e+00 9.203943446743640067e+00
1.431169986635350000e+00 3.113705825669037947e-02 2.970809603013070177e+00 9.549442724265510662e+00
1.448623279155293542e+00 3.125503729438385003e-02 3.009647422456379395e+00 9.907534886415612974e+00
1.466076571675236861e+00 3.137164532103139253e-02 3.048959486552512033e+00 1.027895713595720828e+01
1.483529864195180181e+00 3.148694859879310609e-02 3.088769750809895687e+00 1.066446179128384308e+01
1.500983156715123279e+00 3.160101050279858631e-02 3.129103501702454881e+00 1.106491095823186299e+01
1.518436449235066599e+00 3.171389152114692522e-02 3.169987453043944026e+00 1.148125829122491837e+01
1.535889741755009918e+00 3.182564937494546803e-02 3.211449438091915631e+00 1.191442606123300152e+01
1.553343034274953460e+00 3.193633955468562491e-02 3.253518497415551547e+00 1.236536637664024241e+01
1.570796326794896558e+00 3.204601546999968215e-02 3.296226924474106479e+00 1.283569567386207844e+01
1.588249619314839878e+00 3.215472844966753285e-02 3.339607655550574261e+00 1.332634079656236459e+01
1.605702911834782975e+00 3.226252774515662308e-02 3.383679106016017180e+00 1.383345275450678713e+01
1.623156204354726295e+00 3.236946075453839278e-02 3.428447348105760017e+00 1.435343134541004240e+01
1.640609496874669837e+00 3.247557337635068736e-02 3.473917690768612232e+00 1.488609225594389862e+01
1.658062789394613157e+00 3.258091004084540804e-02 3.520092329825374122e+00 1.543042904916625702e+01
1.675516081914556255e+00 3.268551370998851180e-02 3.566970519264711648e+00 1.598539717549186534e+01
1.692969374434499574e+00 3.278942587965419375e-02 3.614557226804635537e+00 1.655290984604247839e+01
1.710422666954442894e+00 3.289268674999169112e-02 3.662857084710839040e+00 1.713286709128396268e+01
1.727875959474386436e+00 3.299533551454949393e-02 3.711870312006143813e+00 1.772361743239506993e+01
1.745329251994329534e+00 3.309741038832428317e-02 3.761599241613577060e+00 1.832579331033895542e+01
1.762782544514272853e+00 3.319894860776093776e-02 3.812048935107652969e+00 1.894032625622089938e+01
1.780235837034215951e+00 3.329998643075252063e-02 3.863223282250070945e+00 1.956672496308729237e+01
1.797689129554159271e+00 3.340055917861450840e-02 3.915122300134264766e+00 2.020338576731654356e+01
1.815142422074102813e+00 3.350070145034574759e-02 3.967748119708855992e+00 2.085093468077158008e+01
1.832595714594046132e+00 3.360044719081797804e-02 4.021104591441124754e+00 2.150988628185680085e+01
1.850049007113989230e+00 3.369982969080451141e-02 4.075195550326399463e+00 2.218008552733407512e+01
1.867502299633932550e+00 3.379888158698025197e-02 4.130024709557355678e+00 2.286132736180381997e+01
1.884955592153875870e+00 3.389763486317212693e-02 4.185595129681442650e+00 2.355317097265731974e+01
1.902408884673818967e+00 3.399612100235338552e-02 4.241907199794789030e+00 2.425423289357817680e+01
1.919862177193762509e+00 3.409437128221234903e-02 4.298963234298901703e+00 2.496499704430082645e+01
1.937315469713705829e+00 3.419241680916351028e-02 4.356766475155797735e+00 2.568553913184925364e+01
1.954768762233649149e+00 3.429028851834754060e-02 4.415320079210585114e+00 2.641548879126236571e+01
1.972222054753592246e+00 3.438801717363128979e-02 4.474627077260652008e+00 2.715444089303976583e+01
1.989675347273535566e+00 3.448563336419915165e-02 4.534690421912750402e+00 2.790199782612536694e+01
2.007128639793478886e+00 3.458316735977457618e-02 4.595512999695220202e+00 2.865779723523775502e+01
2.024581932313422428e+00 3.468064891512534498e-02 4.657097653767684697e+00 2.942153999871550596e+01
2.042035224833365525e+00 3.477810725622403759e-02 4.719447202020902843e+00 3.019294169525475624e+01
2.059488517353308623e+00 3.487557108024804536e-02 4.782564455005953619e+00 3.097173065460322050e+01
2.076941809873252165e+00 3.497306855557955757e-02 4.846452232290135775e+00 3.175764908600702086e+01
2.094395102393195263e+00 3.507062735995855607e-02 4.911113377765579102e+00 3.255044161185560370e+01
2.111848394913138804e+00 3.516827584748774549e-02 4.976550772945645740e+00 3.334946887585716269e+01
2.129301687433081902e+00 3.526604440349661446e-02 5.042767351386102881e+00 3.415359840742059561e+01
2.146754979953025444e+00 3.536396552052885334e-02 5.109766102711849278e+00 3.496160571121916405e+01
2.164208272472968542e+00 3.546207379834233342e-02 5.177550106848371136e+00 3.577221878533998733e+01
2.181661564992911639e+00 3.556040594390912080e-02 5.246122466045378019e+00 3.658406842031348560e+01
2.199114857512855181e+00 3.565900052405537174e-02 5.315486497618115536e+00 3.739592710860213032e+01
2.216568150032798723e+00 3.575789338352513419e-02 5.385643221010327331e+00 3.820691238694335112e+01
2.234021442552741821e+00 3.585711360497904898e-02 5.456594207840701038e+00 3.901933881079184374e+01
2.251474735072684918e+00 3.595668337055987068e-02 5.528342696091154806e+00 3.983641305783856268e+01
2.268928027592628460e+00 3.605661796189248841e-02 5.600891954699707576e+00 4.066065147628619059e+01
2.286381320112572002e+00 3.615692576008391890e-02 5.674245382784146585e+00 4.149481477254418849e+01
2.303834612632515100e+00 3.625760811317003951e-02 5.748406529725966330e+00 4.234192073040428284e+01
2.321287905152458197e+00 3.635865841512301438e-02 5.823378883514104487e+00 4.320545445775806570e+01
2.338741197672401295e+00 3.646006171494547282e-02 5.899166371572030165e+00 4.408959094230580433e+01
2.356194490192344837e+00 3.656179471524991648e-02 5.975767488407905503e+00 4.499527805075099707e+01
2.373647782712288379e+00 3.666382577225869854e-02 6.053185264356409689e+00 4.592955853925825238e+01
2.391101075232231477e+00 3.676611489580403763e-02 6.131423391915830301e+00 4.689756533546752593e+01
2.408554367752174574e+00 3.686861548840785624e-02 6.210485765840002337e+00 4.790369844664511589e+01
2.426007660272118116e+00 3.697128704669451482e-02 6.290376161934328358e+00 4.894643185955568043e+01
2.443460952792061214e+00 3.707410079546472753e-02 6.371098816786906482e+00 5.002171567234401550e+01
2.460914245312004311e+00 3.717703971303665256e-02 6.452652261703817338e+00 5.112119237363810242e+01
2.478367537831947853e+00 3.728009853124587131e-02 6.535039050277744010e+00 5.224209727153746741e+01
2.495820830351891395e+00 3.738328373544540922e-02 6.618263049900749095e+00 5.337958342406864176e+01
2.513274122871834493e+00 3.748661356450572191e-02 6.702328733000275207e+00 5.452789851886355876e+01
2.530727415391777591e+00 3.759011758840447026e-02 6.787238089091183646e+00 5.567899624309990259e+01
2.548180707911721132e+00 3.769383036918249469e-02 6.872992367643861122e+00 5.682891708851543910e+01
2.565634000431664674e+00 3.779778657163785499e-02 6.959501406882860230e+00 5.791475314331863444e+01
2.583087292951607772e+00 3.790202083700612568e-02 7.046664580063259464e+00 5.892588612450845886e+01
2.600540585471550870e+00 3.800656778296037513e-02 7.134380828823482013e+00 5.985838398427083717e+01
2.617993877991494411e+00 3.811146200361119341e-02 7.222547943677481541e+00 6.070794083198947533e+01
2.635447170511437509e+00 3.821673806950665053e-02 7.311044989457148091e+00 6.145802254537753129e+01
2.652900463031380607e+00 3.832243052926065374e-02 7.399773359019216734e+00 6.212078201252721499e+01
2.670353755551324149e+00 3.842857422484993735e-02 7.488634784365777008e+00 6.269338533430029514e+01
2.687807048071267690e+00 3.853520498093571112e-02 7.577519249525745515e+00 6.316411610095587292e+01
2.705260340591210788e+00 3.864235969597940024e-02 7.666321406275160122e+00 6.353298358675612434e+01
2.722713633111153886e+00 3.875007634224265918e-02 7.754939623798202675e+00 6.379969580376754834e+01
2.740166925631096984e+00 3.885839396578736477e-02 7.843270841041507069e+00 6.396056688523614042e+01
2.757620218151040525e+00 3.896735268647561617e-02 7.931210068901271448e+00 6.401180970620166022e+01
2.775073510670984067e+00 3.907699369883200352e-02 8.018650390223262647e+00 6.394991724545094058e+01
2.792526803190927165e+00 3.918735940291050851e-02 8.105483630127460870e+00 6.377211204069003259e+01
2.809980095710870263e+00 3.929849367414976757e-02 8.191602666128334320e+00 6.347753191186270527e+01
2.827433388230813804e+00 3.941044189668616721e-02 8.276900613746168034e+00 6.306510447361217331e+01
2.844886680750756902e+00 3.952325096335387172e-02 8.361270455328737583e+00 6.253389772500180044e+01
2.862339973270700000e+00 3.963696927568480244e-02 8.444605083321949479e+00 6.188343888891972000e+01
2.879793265790643542e+00 3.975164674390863767e-02 8.526801330277537616e+00 6.111671967824909757e+01
2.897246558310587083e+00 3.986733486988486980e-02 8.607766474749231733e+00 6.024205598678805273e+01
2.914699850830530625e+00 3.998408733268276477e-02 8.687398820951070633e+00 5.925339251309661392e+01
2.932153143350473723e+00 4.010196024071104731e-02 8.765577465540761892e+00 5.813727486366088471e+01
2.949606435870416821e+00 4.022101213270189851e-02 8.842197994987204268e+00 5.690744435193331441e+01
2.967059728390360362e+00 4.034130397771095583e-02 8.917162620841875054e+00 5.557082938634199110e+01
2.984513020910303460e+00 4.046289917512935208e-02 8.990365771742348855e+00 5.412410327151297906e+01
3.001966313430246558e+00 4.058586378136588152e-02 9.061677901079583819e+00 5.255232105172971302e+01
3.019419605950190100e+00 4.071026731646189278e-02 9.131021006442107790e+00 5.089673305734143582e+01
3.036872898470133197e+00 4.083618294342615529e-02 9.198328463627964524e+00 4.916912333866194018e+01
3.054326190990076295e+00 4.096368746823483842e-02 9.263620218250736116e+00 4.743659247513973298e+01
3.071779483510019837e+00 4.109286133983151151e-02 9.326965072468853535e+00 4.573798365800810473e+01
3.089232776029963379e+00 4.122378885665467507e-02 9.388394034107742314e+00 4.404874628080927579e+01
3.106686068549906921e+00 4.135655924488522428e-02 9.447972139687731641e+00 4.239592044256622216e+01
3.124139361069850018e+00 4.149126700917620675e-02 9.505751937249828032e+00 4.077273685749803178e+01
3.141592653589793116e+00 4.162801193284106083e-02 9.561775344225274864e+00 3.917390255964591006e+01
3.159045946109736214e+00 4.176689910497635716e-02 9.616102337113368037e+00 3.761426741201193380e+01
3.176499238629679756e+00 4.190803998929424484e-02 9.668789424646059061e+00 3.609303974630982026e+01
3.193952531149622853e+00 4.205155382098380024e-02 9.719876334080497671e+00 3.460004071713891705e+01
3.211405823669565951e+00 4.219756770091644127e-02 9.769419238318922893e+00 3.314790361110505756e+01
3.228859116189509493e+00 4.234621662162048328e-02 9.817471988017327789e+00 3.173628990220221269e+01
3.246312408709452590e+00 4.249764427307971271e-02 9.864087638981210659e+00 3.036571339678349801e+01
3.263765701229396576e+00 4.265200398476007987e-02 9.909318166747976164e+00 2.903631301274333509e+01
3.281218993749339674e+00 4.280945877903839791e-02 9.953215050987813228e+00 2.774860752319484902e+01
3.298672286269282772e+00 4.297018288855320584e-02 9.995828733053665260e+00 2.650249977436033433e+01
3.316125578789226314e+00 4.313436832642329744e-02 1.003721077429290887e+01 2.529824054904408470e+01
3.333578871309169411e+00 4.330222666416742860e-02 1.007741354629843045e+01 2.413582575950060871e+01
3.351032163829112509e+00 4.347398618578080659e-02 1.011648875178910956e+01 2.301496144767554597e+01
3.368485456349056051e+00 4.364987796356261524e-02 1.015449940089093239e+01 2.194412487039162230e+01
3.385938748868999149e+00 4.383013146151201744e-02 1.019151250947081877e+01 2.092716997992557992e+01
3.403392041388942246e+00 4.401495845427097486e-02 1.022759011226951564e+01 1.996390939171633150e+01
3.420845333908885788e+00 4.420452254523277863e-02 1.026278863744420811e+01 1.905608928277525393e+01
3.438298626428828886e+00 4.439894171418425767e-02 1.029716018413501466e+01 1.820444578384391932e+01
