# angles(rad), pulling distance(m),                                     elastic band force(n), cable force(n)
0.000000000000000000e+00 5.436014982474600020e-04 4.615358102453549771e-02 3.918593028635598136e-02
1.745329251994329547e-02 1.086307600855822243e-03 9.169134383172052039e-02 7.693701336345723507e-02
3.490658503988659095e-02 1.627910090120475960e-03 1.365147642610701484e-01 1.129806231429159591e-01
5.235987755982988295e-02 2.168199464811447139e-03 1.806000846847347907e-01 1.473620058958481360e-01
6.981317007977318190e-02 2.706965510704868998e-03 2.239892400155766850e-01 1.803882037769622415e-01
8.726646259971647390e-02 3.243997300582983183e-03 2.667286538640739613e-01 2.122747021239947407e-01
1.047197551196597659e-01 3.779083977742684480e-03 3.088473649240194296e-01 2.431055281344235153e-01
1.221730476396030718e-01 4.312019151879624597e-03 3.503727990347864640e-01 2.730047346581315204e-01
1.396263401595463638e-01 4.842602285447470886e-03 3.913345330634689923e-01 3.021155412874571011e-01
1.570796326794896558e-01 5.370631684382513177e-03 4.317606114308933929e-01 3.305571308884557857e-01
1.745329251994329478e-01 5.895894832606976034e-03 4.716766881874736028e-01 3.584390596146516117e-01
1.919862177193762398e-01 6.418183805823396773e-03 5.111070936392567710e-01 3.858622518367343379e-01
2.094395102393195318e-01 6.937315159075029512e-03 5.500752338939058905e-01 4.129091554714175993e-01
2.268928027592628516e-01 7.453078350561308414e-03 5.886035028115789158e-01 4.396954729719627641e-01
2.443460952792061436e-01 7.965225513101128682e-03 6.267132200709243373e-01 4.663476704850411103e-01
2.617993877991494078e-01 8.473557033610501152e-03 6.644247147666418885e-01 4.929155107579815676e-01
2.792526803190927276e-01 8.977890928300992154e-03 7.017574763540331828e-01 5.194682497588732906e-01
2.967059728390360474e-01 9.478031777036379293e-03 7.387301808026016658e-01 5.461032169460481311e-01
3.141592653589793116e-01 9.973763613890284166e-03 7.753607672652498284e-01 5.729291022602848171e-01
3.316125578789225758e-01 1.046484798089865852e-02 8.116664719373754000e-01 6.000623355603983411e-01
3.490658503988658956e-01 1.095108309371778908e-02 8.476638649017077531e-01 6.275500975159301609e-01
3.665191429188092154e-01 1.143226878841941026e-02 8.833689307231914478e-01 6.554797069701585599e-01
3.839724354387524796e-01 1.190820118979831442e-02 9.187970810763070872e-01 6.839475740265950066e-01
4.014257279586957439e-01 1.237867769256727549e-02 9.539632034635170399e-01 7.130470186811228572e-01
4.188790204786390636e-01 1.284349599628768074e-02 9.888817126208007124e-01 7.428768372768330686e-01
4.363323129985823834e-01 1.330245943124998796e-02 1.023566556847065989e+00 7.735310457219907176e-01
4.537856055185257032e-01 1.375532851173586445e-02 1.058031269087944981e+00 8.051939247396951993e-01
4.712388980384689674e-01 1.420187968084348114e-02 1.092289003023901639e+00 8.379632309896890563e-01
4.886921905584122872e-01 1.464191613930115876e-02 1.126352537842682633e+00 8.719175003249592937e-01
5.061454830783556069e-01 1.507524740227175232e-02 1.160234324037013209e+00 9.071769027893467063e-01
5.235987755982988157e-01 1.550169489211228151e-02 1.193946512549739714e+00 9.438571187332041035e-01
5.410520681182421354e-01 1.592103922142533434e-02 1.227500957843159490e+00 9.822027116723096585e-01
5.585053606381854552e-01 1.633300707680918062e-02 1.260909255776321736e+00 1.022527159173808764e+00
5.759586531581287749e-01 1.673743550992994392e-02 1.294182772237131962e+00 1.064762223640951522e+00
5.934119456780720947e-01 1.713417921679006792e-02 1.327332644797794892e+00 1.109051189970540641e+00
6.108652381980153034e-01 1.752292836805005929e-02 1.360369810554047820e+00 1.156086457691566594e+00
6.283185307179586232e-01 1.790349527120046330e-02 1.393305037786675360e+00 1.205801598720032120e+00
6.457718232379019430e-01 1.827576137012961940e-02 1.426148927777497466e+00 1.258247222328099602e+00
6.632251157578451517e-01 1.863940694649446339e-02 1.458911931473639845e+00 1.314420966728909068e+00
6.806784082777884715e-01 1.899424934084670280e-02 1.491604384749483092e+00 1.374249735392638616e+00
6.981317007977317912e-01 1.934019522763150492e-02 1.524236512894033835e+00 1.437770562142920872e+00
7.155849933176750000e-01 1.967685053098116449e-02 1.556818437680276723e+00 1.506708515732234188e+00
7.330382858376184307e-01 2.000411977328816343e-02 1.589360212258386307e+00 1.580368548725740618e+00
7.504915783575616395e-01 2.032182744883441472e-02 1.621871831902594874e+00 1.659691728247096210e+00
7.679448708775049592e-01 2.062964564737942291e-02 1.654363235883332006e+00 1.746244519721127375e+00
7.853981633974482790e-01 2.092765269516480564e-02 1.686844334916246080e+00 1.838565842744188883e+00
8.028514559173914877e-01 2.121612694268382518e-02 1.719325032030239342e+00 1.935870396964944451e+00
8.203047484373349185e-01 2.149573184537231785e-02 1.751815223245592357e+00 2.035615650152839073e+00
8.377580409572781273e-01 2.176707188192909467e-02 1.784324813967160361e+00 2.137821979848976373e+00
8.552113334772214470e-01 2.203070140448581959e-02 1.816863749552656948e+00 2.242495906413402462e+00
8.726646259971647668e-01 2.228712199090895907e-02 1.849442018653803643e+00 2.349718507828591818e+00
8.901179185171079755e-01 2.253679155524527730e-02 1.882069660251280752e+00 2.459550666473949487e+00
9.075712110370514063e-01 2.278012864369976728e-02 1.914756798070372357e+00 2.572066582454977546e+00
9.250245035569946150e-01 2.301751707311770756e-02 1.947513651088756514e+00 2.687343211142602772e+00
9.424777960769379348e-01 2.324930967042316415e-02 1.980350535859201955e+00 2.805462430942263108e+00
9.599310885968812546e-01 2.347583158973350764e-02 2.013277897222232937e+00 2.926512765204769995e+00
9.773843811168245743e-01 2.369738316918787099e-02 2.046306330055432721e+00 3.050589453924855032e+00
9.948376736367677831e-01 2.391424248098529895e-02 2.079446580292836799e+00 3.177792065050529580e+00
1.012290966156711214e+00 2.412666754460903937e-02 2.112709569221927985e+00 3.308227090184144625e+00
1.029744258676654312e+00 2.433489821739921732e-02 2.146106426612449436e+00 3.442010214637213128e+00
1.047197551196597631e+00 2.453915792439506291e-02 2.179648493188170555e+00 3.579262691866806900e+00
1.064650843716540951e+00 2.473965524802497484e-02 2.213347339776469802e+00 3.720112124161011558e+00
1.082104136236484271e+00 2.493658516150288815e-02 2.247214809774960464e+00 3.864698806093444627e+00
1.099557428756427591e+00 2.513013032439241970e-02 2.281263024874531808e+00 4.013168451745791288e+00
1.117010721276370910e+00 2.532046213512913549e-02 2.315504402426243669e+00 4.165675730149159151e+00
1.134464013796314230e+00 2.550774163618798815e-02 2.349951705584530703e+00 4.322389709067270047e+00
1.151917306316257550e+00 2.569212049748137439e-02 2.384618052327738713e+00 4.483485561859961166e+00
1.169370598836200648e+00 2.587374163545426431e-02 2.419516935826608428e+00 4.649152659728382986e+00
1.186823891356144189e+00 2.605274009585470743e-02 2.454662281825824355e+00 4.819592024031752686e+00
1.204277183876087287e+00 2.622924349798900698e-02 2.490068458904139082e+00 4.995020137119168702e+00
1.221730476396030607e+00 2.640337279843912519e-02 2.525750309681789929e+00 5.175662304890930265e+00
1.239183768915973927e+00 2.657524263855019081e-02 2.561723213444092817e+00 5.361768100984496854e+00
1.256637061435917246e+00 2.674496196357780547e-02 2.598003095750534008e+00 5.553595415858678663e+00
1.274090353955860566e+00 2.691263436181554752e-02 2.634606483022354340e+00 5.751424946530599769e+00
1.291543646475803886e+00 2.707835848419152397e-02 2.671550560509922345e+00 5.955558521258558891e+00
1.308996938995747206e+00 2.724222846893020397e-02 2.708853188668836953e+00 6.166311871886724916e+00
1.326450231515690303e+00 2.740433412921637613e-02 2.746532991641710719e+00 6.384035067058458246e+00
1.343903524035633845e+00 2.756476144086571559e-02 2.784609393627704321e+00 6.609093274435493548e+00
1.361356816555576943e+00 2.772359265348788362e-02 2.823102675859278321e+00 6.841884934107468119e+00
1.378810109075520263e+00 2.788090665283747549e-02 2.862034065958117157e+00 7.082838473286162895e+00
1.396263401595463582e+00 2.803677924532121252e-02 2.901425773556511434e+00 7.332406157439576688e+00
1.413716694115406902e+00 2.819128322772535694e-02 2.941301122157859993e+00 7.591092848389561887e+00
1.431169986635350000e+00 2.834448868286720130e-02 2.981684596270626653e+00 7.859431806422930045e+00
1.448623279155293542e+00 2.849646306808469032e-02 3.022601929975046176e+00 8.138003759476864829e+00
1.466076571675236861e+00 2.864727143462292291e-02 3.064080174781699917e+00 8.427428166897469097e+00
1.483529864195180181e+00 2.879697697738255527e-02 3.106147948291773986e+00 8.728382795239824077e+00
1.500983156715123279e+00 2.894564111733325881e-02 3.148835638307201368e+00 9.041623600833448293e+00
1.518436449235066599e+00 2.909332321377582770e-02 3.192175057930536575e+00 9.367893446758952081e+00
1.535889741755009918e+00 2.924008000133993326e-02 3.236199281459301247e+00 9.707977594450905912e+00
1.553343034274953460e+00 2.938596549707879133e-02 3.280945023385204440e+00 1.006325670320697085e+01
1.570796326794896558e+00 2.953102606583137002e-02 3.326452971153003535e+00 1.043564418401475358e+01
1.588249619314839878e+00 2.967528983275749890e-02 3.372757569056768379e+00 1.082559996801010094e+01
1.605702911834782975e+00 2.981876531523215343e-02 3.419884397700658774e+00 1.123316006418208524e+01
1.623156204354726295e+00 2.996144610279647541e-02 3.467855278308428435e+00 1.165931828388349167e+01
1.640609496874669837e+00 3.010332614992802108e-02 3.516687162553148838e+00 1.210363711589916136e+01
1.658062789394613157e+00 3.024440289472208124e-02 3.566392726895155185e+00 1.256547019243494212e+01
1.675516081914556255e+00 3.038467689731403493e-02 3.616990686628288820e+00 1.304677600520938086e+01
1.692969374434499574e+00 3.052414915955027619e-02 3.668500609204024876e+00 1.354851346922778532e+01
1.710422666954442894e+00 3.066281992050179719e-02 3.720937642664382761e+00 1.407037289861763441e+01
1.727875959474386436e+00 3.080068865956398644e-02 3.774317478217378063e+00 1.461335235837311153e+01
1.745329251994329534e+00 3.093775448332479819e-02 3.828658067059652836e+00 1.517895038538628683e+01
1.762782544514272853e+00 3.107401665441973312e-02 3.883977787423177563e+00 1.576817420211935783e+01
1.780235837034215951e+00 3.120947462965139793e-02 3.940294556066061826e+00 1.638180819691698886e+01
1.797689129554159271e+00 3.134412801556288319e-02 3.997625601983942456e+00 1.702059368195115852e+01
1.815142422074102813e+00 3.147797621390140133e-02 4.055984983336878180e+00 1.768456933620300831e+01
1.832595714594046132e+00 3.161101825185153036e-02 4.115389844894170146e+00 1.837570799102302388e+01
1.850049007113989230e+00 3.174325278097205744e-02 4.175857736136304510e+00 1.909526302325858182e+01
1.867502299633932550e+00 3.187467820695132070e-02 4.237406010339507922e+00 1.984433568249052726e+01
1.884955592153875870e+00 3.200529331889895301e-02 4.300052014834950143e+00 2.062403605794054329e+01
1.902408884673818967e+00 3.213509747985359571e-02 4.363813173919016464e+00 2.143550591514750536e+01
1.919862177193762509e+00 3.226409062682451812e-02 4.428706952078537817e+00 2.227990658654894318e+01
1.937315469713705829e+00 3.239227313792782809e-02 4.494751279937695188e+00 2.315860600814122705e+01
1.954768762233649149e+00 3.251964480493830384e-02 4.561959958161540207e+00 2.407154637246955886e+01
1.972222054753592246e+00 3.264620435435632018e-02 4.630349330543615416e+00 2.502116087500594332e+01
1.989675347273535566e+00 3.277194944472447413e-02 4.699937190683691313e+00 2.600964943719703015e+01
2.007128639793478886e+00 3.289687668589874603e-02 4.770741968094997176e+00 2.703904448402320071e+01
2.024581932313422428e+00 3.302098503732635304e-02 4.842783149206324467e+00 2.811090582718350817e+01
2.042035224833365525e+00 3.314428307751678821e-02 4.916076919464770434e+00 2.922332031811602704e+01
2.059488517353308623e+00 3.326678994096591430e-02 4.990634691107642240e+00 3.037304124655157267e+01
2.076941809873252165e+00 3.338853531815597769e-02 5.066477588256590003e+00 3.156229398621861648e+01
2.094395102393195263e+00 3.350955945402885050e-02 5.143628323338306885e+00 3.278971613972503718e+01
2.111848394913138804e+00 3.362991041232511052e-02 5.222092039350772374e+00 3.404582336253122321e+01
2.129301687433081902e+00 3.374963569634887445e-02 5.301893800482607055e+00 3.533927407751917826e+01
2.146754979953025444e+00 3.386878065012972894e-02 5.383050135722396767e+00 3.666698484191155671e+01
2.164208272472968542e+00 3.398738845842270984e-02 5.465573367173377051e+00 3.802757866306865253e+01
2.181661564992911639e+00 3.410550014670832297e-02 5.549489172914868540e+00 3.942792302424057738e+01
2.199114857512855181e+00 3.422315464929986256e-02 5.634803652281545894e+00 4.085949363083915387e+01
2.216568150032798723e+00 3.434038983487854024e-02 5.721545071534484883e+00 4.233327540489015206e+01
2.234021442552741821e+00 3.445724329926317525e-02 5.809719970200739603e+00 4.383879180214781002e+01
2.251474735072684918e+00 3.457375238599513095e-02 5.899352764411399441e+00 4.538491263991196689e+01
2.268928027592628460e+00 3.468995418633832178e-02 5.990443664701230020e+00 4.695924718391268726e+01
2.286381320112572002e+00 3.480588553927919937e-02 6.082916772557823926e+00 4.852062919323467582e+01
2.303834612632515100e+00 3.492158302709967577e-02 6.176693794947745175e+00 5.006434998859107566e+01
2.321287905152458197e+00 3.503708294833466491e-02 6.271652219308202270e+00 5.156247783672456819e+01
2.338741197672401295e+00 3.515242130756369987e-02 6.367716526796976417e+00 5.303615228450210850e+01
2.356194490192344837e+00 3.526763381539203823e-02 6.464775285662864412e+00 5.446136686028791729e+01
2.373647782712288379e+00 3.538275588845066905e-02 6.562729516418010611e+00 5.584047475477721179e+01
2.391101075232231477e+00 3.549782264939630588e-02 6.661498686260422630e+00 5.717990927537399415e+01
2.408554367752174574e+00 3.561286899202449618e-02 6.760969150416809903e+00 5.845615985485412835e+01
2.426007660272118116e+00 3.572792985825882367e-02 6.861039971061579479e+00 5.967188696306464379e+01
2.443460952792061214e+00 3.584304031179155053e-02 6.961618583602674271e+00 6.082765871302819249e+01
2.460914245312004311e+00 3.595823553808422113e-02 7.062608505133758818e+00 6.191682604330262052e+01
2.478367537831947853e+00 3.607355084436766196e-02 7.163912085212740699e+00 6.293439830262498447e+01
2.495820830351891395e+00 3.618902165966404738e-02 7.265430797831383458e+00 6.387563639543758853e+01
2.513274122871834493e+00 3.630468359711454263e-02 7.367071636587030348e+00 6.473999630484698287e+01
2.530727415391777591e+00 3.642057265265983418e-02 7.468738326796536597e+00 6.552145085258315760e+01
2.548180707911721132e+00 3.653672524454192050e-02 7.570320199738227451e+00 6.620664181462286990e+01
2.565634000431664674e+00 3.665317821330411202e-02 7.671724779441508879e+00 6.680362339642630332e+01
2.583087292951607772e+00 3.676996882179103809e-02 7.772860388312857971e+00 6.730960461876718171e+01
2.600540585471550870e+00 3.688713475644916917e-02 7.873622356018413981e+00 6.771265759776885318e+01
2.617993877991494411e+00 3.700471425331577913e-02 7.973913030724601114e+00 6.801433406430250272e+01
2.635447170511437509e+00 3.712274632742223329e-02 8.073650212330734988e+00 6.822239832245642788e+01
2.652900463031380607e+00 3.724127079713592664e-02 8.172722360347190573e+00 6.831409255300378902e+01
2.670353755551324149e+00 3.736032828416028378e-02 8.271031634576734959e+00 6.829634468586758089e+01
2.687807048071267690e+00 3.747996021353474511e-02 8.368480194822140561e+00 6.816711480720474015e+01
2.705260340591210788e+00 3.760020883780933881e-02 8.464953221865689770e+00 6.791259908558980385e+01
2.722713633111153886e+00 3.772111750190555723e-02 8.560369399244347477e+00 6.755493753326977924e+01
2.740166925631096984e+00 3.784273080661763183e-02 8.654638894342435051e+00 6.708710373075770406e+01
2.757620218151040525e+00 3.796509461102450661e-02 8.747663358391626787e+00 6.650223892118529534e+01
2.775073510670984067e+00 3.808825603248984504e-02 8.839337715426299980e+00 6.579500236623353260e+01
2.792526803190927165e+00 3.821226345256231033e-02 8.929558082492272675e+00 6.496611311392408084e+01
2.809980095710870263e+00 3.833716675700575560e-02 9.018224477407745354e+00 6.401859874830499564e+01
2.827433388230813804e+00 3.846301765391581251e-02 9.105241927059411822e+00 6.295663760905800643e+01
2.844886680750756902e+00 3.858986969562690217e-02 9.190516584321889226e+00 6.178206840203019823e+01
2.862339973270700000e+00 3.871777827871220046e-02 9.273950969128261335e+00 6.049370379763141869e+01
2.879793265790643542e+00 3.884680065615278566e-02 9.355447339158947884e+00 5.909323741192128665e+01
2.897246558310587083e+00 3.897699627785984611e-02 9.434911296291621952e+00 5.758529948771857221e+01
2.914699850830530625e+00 3.910842716873259156e-02 9.512266183592020141e+00 5.598533751974591866e+01
2.932153143350473723e+00 3.924115794836024323e-02 9.587357294046114475e+00 5.423951456848868702e+01
2.949606435870416821e+00 3.937525583102203380e-02 9.660145432694639211e+00 5.243513105223897952e+01
2.967059728390360362e+00 3.951079075601235391e-02 9.730479800505008825e+00 5.049526129954965370e+01
2.984513020910303460e+00 3.964783605921994719e-02 9.798308419913279721e+00 4.849533089451553991e+01
3.001966313430246558e+00 3.978646868883276705e-02 9.863541770424461674e+00 4.641272977283826151e+01
3.019419605950190100e+00 3.992676920543883345e-02 9.926196845751883657e+00 4.432817683997765812e+01
3.036872898470133197e+00 4.006882186818026825e-02 9.986361524327048045e+00 4.229602033860752641e+01
3.054326190990076295e+00 4.021271534454365360e-02 1.004413067174044016e+01 4.032433436730853771e+01
3.071779483510019837e+00 4.035854305951083743e-02 1.009957601291694296e+01 3.839972654719380074e+01
3.089232776029963379e+00 4.050640319799145295e-02 1.015279320309675981e+01 3.654150011609687709e+01
3.106686068549906921e+00 4.065639907477591741e-02 1.020396613435142541e+01 3.481208075262150459e+01
3.124139361069850018e+00 4.080864061134881898e-02 1.025325918881098453e+01 3.319819774283541847e+01
3.141592653589793116e+00 4.096324470434412057e-02 1.030081957381363189e+01 3.168809669148149766e+01
3.159045946109736214e+00 4.112033521131423786e-02 1.034677853206472165e+01 3.027090380953932680e+01
3.176499238629679756e+00 4.128004273409726504e-02 1.039125349032125634e+01 2.893730722021017243e+01
3.193952531149622853e+00 4.144250445014173445e-02 1.043435000532116241e+01 2.767939010292786861e+01
3.211405823669565951e+00 4.160786442946267510e-02 1.047616330737237078e+01 2.649026581327540342e+01
3.228859116189509493e+00 4.177628028988641246e-02 1.051677961688953289e+01 2.536297798607902010e+01
3.246312408709452590e+00 4.194792946685163559e-02 1.055627725520936977e+01 2.429070901485553335e+01
3.263765701229396576e+00 4.212300597782316081e-02 1.059472759145012688e+01 2.326816064644537008e+01
3.281218993749339674e+00 4.230169025571665214e-02 1.063219585148546287e+01 2.229462399302566666e+01
3.298672286269282772e+00 4.248413368442521126e-02 1.066874180887274903e+01 2.137097434985532374e+01
3.316125578789226314e+00 4.267046063072721385e-02 1.070442037978227390e+01 2.049721895545991046e+01
3.333578871309169411e+00 4.286077268660654083e-02 1.073928215858021318e+01 1.967245203312127799e+01
3.351032163829112509e+00 4.305515263696841483e-02 1.077337386370017036e+01 1.889509099187223740e+01
3.368485456349056051e+00 4.325368666001772056e-02 1.080673871489524096e+01 1.816138229551449967e+01
3.385938748868999149e+00 4.345647271623206270e-02 1.083941681237436860e+01 1.746725222750352913e+01
3.403392041388942246e+00 4.366361039643163605e-02 1.087144541434855505e+01 1.680994002273283172e+01
3.420845333908885788e+00 4.387518940050235544e-02 1.090285921601349983e+01 1.618781875342271803e+01
3.438298626428828886e+00 4.409129224334640967e-02 1.093369059586928138e+01 1.559908993099678476e+01
