# angles(rad), pulling distance(m),                                     elastic band force(n), cable force(n)
0.000000000000000000e+00 5.286759501262868269e-04 6.767275854552999570e-02 8.662399430251471744e-02
1.745329251994329547e-02 1.056027796000568375e-03 1.348172900116789696e-01 1.716547280945353582e-01
3.490658503988659095e-02 1.581902129257116126e-03 2.011425559006878305e-01 2.536886221294171184e-01
5.235987755982988295e-02 2.106148177708387029e-03 2.665610233691066977e-01 3.326303304933966865e-01
6.981317007977318190e-02 2.628618360955229782e-03 3.311398077676603879e-01 4.092981176210589989e-01
8.726646259971647390e-02 3.149168272917357916e-03 3.949306725711879129e-01 4.839683681012265648e-01
1.047197551196597659e-01 3.667654823895420864e-03 4.579627720277163472e-01 5.567425990006017456e-01
1.221730476396030718e-01 4.183932762215228016e-03 5.202733581973586485e-01 6.279280114743951424e-01
1.396263401595463638e-01 4.697854411390164561e-03 5.818989429861020080e-01 6.977690608488782420e-01
1.570796326794896558e-01 5.209271032982809753e-03 6.428722037453511451e-01 7.664595333598775984e-01
1.745329251994329478e-01 5.718034136443249371e-03 7.032247799595870985e-01 8.342080398436453326e-01
1.919862177193762398e-01 6.224003519239310923e-03 7.629873791643041470e-01 9.012029282734833613e-01
2.094395102393195318e-01 6.727050172055541732e-03 8.221893060500352624e-01 9.676078930354375940e-01
2.268928027592628516e-01 7.227015263385645587e-03 8.808586432488975104e-01 1.033660022699072867e+00
2.443460952792061436e-01 7.723713436520888986e-03 9.390224444708568097e-01 1.099603698125333207e+00
2.617993877991494078e-01 8.217024016801728267e-03 9.967067824339956861e-01 1.165480190093309609e+00
2.792526803190927276e-01 8.706822265902499150e-03 1.053936784545341565e+00 1.231462229917968498e+00
2.967059728390360474e-01 9.192926922662757530e-03 1.110736717973985543e+00 1.297863963249134445e+00
3.141592653589793116e-01 9.675187910266806399e-03 1.167130045724506626e+00 1.364786886930644538e+00
3.316125578789225758e-01 1.015347234508768258e-02 1.223139490430247056e+00 1.432356118432270842e+00
3.490658503988658956e-01 1.062764444420548522e-02 1.278787077948346118e+00 1.500750802705186571e+00
3.665191429188092154e-01 1.109756318893632965e-02 1.334094193220551450e+00 1.570162972977186211e+00
3.839724354387524796e-01 1.156307702587686115e-02 1.389081625394468222e+00 1.640811198275292426e+00
4.014257279586957439e-01 1.202401262629668351e-02 1.443769610235104306e+00 1.712969240952416650e+00
4.188790204786390636e-01 1.248022663980875857e-02 1.498177877625022303e+00 1.786732983846060607e+00
4.363323129985823834e-01 1.293157660770102337e-02 1.552325680833666510e+00 1.862302679980902376e+00
4.537856055185257032e-01 1.337791779083847415e-02 1.606231848118337746e+00 1.939901715857801578e+00
4.712388980384689674e-01 1.381910558971359733e-02 1.659914801698868514e+00 2.019755067443709695e+00
4.886921905584122872e-01 1.425499568191705875e-02 1.713392609183589377e+00 2.102100546412374538e+00
5.061454830783556069e-01 1.468544416552554008e-02 1.766683000560807182e+00 2.187189225296346518e+00
5.235987755982988157e-01 1.511030940609372521e-02 1.819803410744624150e+00 2.275279180367543841e+00
5.410520681182421354e-01 1.552942882275589603e-02 1.872771004291218677e+00 2.366775897693653263e+00
5.585053606381854552e-01 1.594263821699695022e-02 1.925602702668457233e+00 2.462017141905244344e+00
5.759586531581287749e-01 1.634979362742495362e-02 1.978315220531804641e+00 2.561232731550664443e+00
5.934119456780720947e-01 1.675075279302422337e-02 2.030925079647944109e+00 2.664777151459311266e+00
6.108652381980153034e-01 1.714537693364524482e-02 2.083448650774707644e+00 2.773022532927534201e+00
6.283185307179586232e-01 1.753352980266280337e-02 2.135902165980966938e+00 2.886377653885070949e+00
6.457718232379019430e-01 1.791507973038740376e-02 2.188301752504379305e+00 3.005271359989712732e+00
6.632251157578451517e-01 1.828986792069409520e-02 2.240663456078333393e+00 3.130433635066177889e+00
6.806784082777884715e-01 1.865769780956450657e-02 2.293003259921829518e+00 3.262794690376239704e+00
6.981317007977317912e-01 1.901844159461256803e-02 2.345337121209687403e+00 3.402429997742022483e+00
7.155849933176750000e-01 1.937197019130054709e-02 2.397680980878722945e+00 3.550034649813607057e+00
7.330382858376184307e-01 1.971815776963427302e-02 2.450050799892221853e+00 3.706335090987683767e+00
7.504915783575616395e-01 2.005687014935755852e-02 2.502462574709036769e+00 3.872267823818821952e+00
7.679448708775049592e-01 2.038787315113984103e-02 2.554932366477076666e+00 4.050016722768349453e+00
7.853981633974482790e-01 2.071108546622087154e-02 2.607476335728019734e+00 4.238921291495552524e+00
8.028514559173914877e-01 2.102659638420258451e-02 2.660110750345990649e+00 4.437671224155490535e+00
8.203047484373349185e-01 2.133459034058633047e-02 2.712852006824673978e+00 4.645520488797549419e+00
8.377580409572781273e-01 2.163526561066873161e-02 2.765716643271815656e+00 4.862674766112467850e+00
8.552113334772214470e-01 2.192881555446291042e-02 2.818721438053475303e+00 5.089619484834426721e+00
8.726646259971647668e-01 2.221543235791212031e-02 2.871883441153028738e+00 5.326801309721118649e+00
8.901179185171079755e-01 2.249530765399688700e-02 2.925217506548414725e+00 5.574402027348928534e+00
9.075712110370514063e-01 2.276863338380779450e-02 2.978732178936704500e+00 5.832084553420383344e+00
9.250245035569946150e-01 2.303560237587077772e-02 3.032430731314751160e+00 6.099477665926299252e+00
9.424777960769379348e-01 2.329640872727876608e-02 3.086316868375005296e+00 6.376750139818012642e+00
9.599310885968812546e-01 2.355124791360168127e-02 3.140395950196416042e+00 6.664192112397662626e+00
9.773843811168245743e-01 2.380031704101435650e-02 3.194673463209608322e+00 6.961879710806513799e+00
9.948376736367677831e-01 2.404381351255354543e-02 3.249154353103585358e+00 7.269789966196061215e+00
1.012290966156711214e+00 2.428193826234688671e-02 3.303843438856703951e+00 7.587794939388739834e+00
1.029744258676654312e+00 2.451488787747706233e-02 3.358745672931497950e+00 7.915988229040054946e+00
1.047197551196597631e+00 2.474284478115996652e-02 3.413866034741789512e+00 8.254785354892618443e+00
1.064650843716540951e+00 2.496600655251506387e-02 3.469209459682117469e+00 8.603531517442878140e+00
1.082104136236484271e+00 2.518457374312549346e-02 3.524780948440958461e+00 8.961881438225162810e+00
1.099557428756427591e+00 2.539874050745630218e-02 3.580585611961088155e+00 9.329803151522934712e+00
1.117010721276370910e+00 2.560869908184387408e-02 3.636628412621926376e+00 9.707002526598161651e+00
1.134464013796314230e+00 2.581464740694898105e-02 3.692914047781406417e+00 1.009272654500403021e+01
1.151917306316257550e+00 2.601678694208698489e-02 3.749447052700330296e+00 1.048619749366879716e+01
1.169370598836200648e+00 2.621531249296713689e-02 3.806231968766530915e+00 1.088709044839163020e+01
1.186823891356144189e+00 2.641041139875403843e-02 3.863273733038062652e+00 1.129519146750387115e+01
1.204277183876087287e+00 2.660225725814809039e-02 3.920577820898011545e+00 1.171071070390136803e+01
1.221730476396030607e+00 2.679096554167367111e-02 3.978150185604308220e+00 1.213680232065632403e+01
1.239183768915973927e+00 2.697658692462328103e-02 4.035995399998618893e+00 1.257737742804931713e+01
1.256637061435917246e+00 2.715916159271054495e-02 4.094116536921886151e+00 1.303328168771562190e+01
1.274090353955860566e+00 2.733873394755624575e-02 4.152519103221184338e+00 1.350529553635149504e+01
1.291543646475803886e+00 2.751534853888661439e-02 4.211209284429386912e+00 1.399412325714953198e+01
1.308996938995747206e+00 2.768904921500440000e-02 4.270191040006171335e+00 1.449984938556229075e+01
1.326450231515690303e+00 2.785988020301853954e-02 4.329469207250094875e+00 1.502321111223372085e+01
1.343903524035633845e+00 2.802788650894109251e-02 4.389049361058797061e+00 1.556490600575529726e+01
1.361356816555576943e+00 2.819311443486699140e-02 4.448935690368088558e+00 1.612502404398227185e+01
1.378810109075520263e+00 2.835561178700975529e-02 4.509133561506151189e+00 1.670428702379007646e+01
1.396263401595463582e+00 2.851542566549084695e-02 4.569648559411104927e+00 1.730339540141105559e+01
1.413716694115406902e+00 2.867259977365360646e-02 4.630483908875041799e+00 1.792261524982492915e+01
1.431169986635350000e+00 2.882717502478283553e-02 4.691645515922573395e+00 1.856368191899454700e+01
1.448623279155293542e+00 2.897919310243421073e-02 4.753139397069821470e+00 1.922725202656636512e+01
1.466076571675236861e+00 2.912869749456506799e-02 4.814968452336370497e+00 1.991278960457686509e+01
1.483529864195180181e+00 2.927573389700238379e-02 4.877137565724294355e+00 2.062124163172989455e+01
1.500983156715123279e+00 2.942035091903038441e-02 4.939653280403680569e+00 2.135336150353207429e+01
1.518436449235066599e+00 2.956260032810078750e-02 5.002520936564895493e+00 2.210882760318430229e+01
1.535889741755009918e+00 2.970254409489139769e-02 5.065743291829357453e+00 2.288549389654515309e+01
1.553343034274953460e+00 2.984026372172501190e-02 5.129325374392450065e+00 2.368095215953539423e+01
1.570796326794896558e+00 2.997586083950906644e-02 5.193273028823767845e+00 2.449149616465939161e+01
1.588249619314839878e+00 3.010944854662928397e-02 5.257592031794794174e+00 2.531393679877584191e+01
1.605702911834782975e+00 3.024113245959510893e-02 5.322287358849218997e+00 2.614800195432674101e+01
1.623156204354726295e+00 3.037100820615470237e-02 5.387361748510377524e+00 2.699343695455289449e+01
1.640609496874669837e+00 3.049916180088165299e-02 5.452820397965034260e+00 2.785206764820752312e+01
1.658062789394613157e+00 3.062567381419746548e-02 5.518669114347515503e+00 2.872432963439435127e+01
1.675516081914556255e+00 3.075062197130489991e-02 5.584913165807865454e+00 2.960966241696904433e+01
1.692969374434499574e+00 3.087408119160262379e-02 5.651558074978589197e+00 3.050785301184670928e+01
1.710422666954442894e+00 3.099612356408625730e-02 5.718608817388837195e+00 3.141834749329679255e+01
1.727875959474386436e+00 3.111681815493329284e-02 5.786068202642963954e+00 3.233985891575067484e+01
1.745329251994329534e+00 3.123623091692657658e-02 5.853941347111823568e+00 3.327327834416082197e+01
1.762782544514272853e+00 3.135442468892545020e-02 5.922233651594768666e+00 3.421863748943555805e+01
1.780235837034215951e+00 3.147145921862382068e-02 5.990950245575701771e+00 3.517574656353153983e+01
1.797689129554159271e+00 3.158739169447466466e-02 6.060096301957448084e+00 3.614446750133097908e+01
1.815142422074102813e+00 3.170227728237421522e-02 6.129676915990168951e+00 3.712447239332527715e+01
1.832595714594046132e+00 3.181616914937196450e-02 6.199697157011222259e+00 3.811547748181487094e+01
1.850049007113989230e+00 3.192911846367064987e-02 6.270162036740228650e+00 3.911721080766380254e+01
1.867502299633932550e+00 3.204117444363363543e-02 6.341076569934130269e+00 4.012945003490094109e+01
1.884955592153875870e+00 3.215238470186856240e-02 6.412445679281429278e+00 4.115182755006937754e+01
1.902408884673818967e+00 3.226279539263410268e-02 6.484273399095529022e+00 4.218346698847061305e+01
1.919862177193762509e+00 3.237245121240114876e-02 6.556564404634898757e+00 4.322439380797256092e+01
1.937315469713705829e+00 3.248139539985282070e-02 6.629323708359772915e+00 4.427450316255078633e+01
1.954768762233649149e+00 3.258966977123949060e-02 6.702556311802351452e+00 4.533350248516831726e+01
1.972222054753592246e+00 3.269731502324450811e-02 6.776267197606538062e+00 4.640099291682108174e+01
1.989675347273535566e+00 3.280437088689395347e-02 6.850461336894215769e+00 4.747652910247868618e+01
2.007128639793478886e+00 3.291087612876914675e-02 6.925143690286142295e+00 4.855967830896636883e+01
2.024581932313422428e+00 3.301686855100666868e-02 7.000319210924923041e+00 4.965002499326056551e+01
2.042035224833365525e+00 3.312238499401691516e-02 7.075992846673884173e+00 5.074717171706340224e+01
2.059488517353308623e+00 3.322746147925483007e-02 7.152169542254120493e+00 5.185067246253451145e+01
2.076941809873252165e+00 3.333213341954832654e-02 7.228854241444457429e+00 5.295999208972362737e+01
2.094395102393195263e+00 3.343643563596740420e-02 7.306051887905224085e+00 5.407459496358128348e+01
2.111848394913138804e+00 3.354040235782412144e-02 7.383767430079540617e+00 5.519395811176121924e+01
2.129301687433081902e+00 3.364406722267263006e-02 7.462005810267129391e+00 5.631756221346779512e+01
2.146754979953025444e+00 3.374746329268737272e-02 7.540772009092762573e+00 5.744492486825407696e+01
2.164208272472968542e+00 3.385062323751876490e-02 7.620070260832532583e+00 5.857489074910563431e+01
2.181661564992911639e+00 3.395357944877975404e-02 7.699897420202300502e+00 5.970120024475576770e+01
2.199114857512855181e+00 3.405636404180330951e-02 7.780223056509502300e+00 6.080204719815140635e+01
2.216568150032798723e+00 3.415900885564242262e-02 7.861009598546282895e+00 6.187003109381581112e+01
2.234021442552741821e+00 3.426154545307010663e-02 7.942219871195215219e+00 6.290337863341017766e+01
2.251474735072684918e+00 3.436400514744690493e-02 8.023816640164167069e+00 6.390000639949094818e+01
2.268928027592628460e+00 3.446641918442294034e-02 8.105762845791845805e+00 6.485795585676036978e+01
2.286381320112572002e+00 3.456881881721622640e-02 8.188021626364786698e+00 6.577530171903133294e+01
2.303834612632515100e+00 3.467123530685400912e-02 8.270556546002863385e+00 6.665037264025694697e+01
2.321287905152458197e+00 3.477369992217278771e-02 8.353331344171111894e+00 6.748137529185964922e+01
2.338741197672401295e+00 3.487624393981831467e-02 8.436311224866924974e+00 6.826766836580107167e+01
2.356194490192344837e+00 3.497889868119540696e-02 8.519460370777794722e+00 6.900663758427637617e+01
2.373647782712288379e+00 3.508169570089268025e-02 8.602737541368504992e+00 6.969186887805098252e+01
2.391101075232231477e+00 3.518466684659123100e-02 8.686103487069736673e+00 7.032312078747156647e+01
2.408554367752174574e+00 3.528784425908959577e-02 8.769526696536273036e+00 7.090525385477464226e+01
2.426007660272118116e+00 3.539126037230374416e-02 8.852972534900539259e+00 7.143410173044014755e+01
2.443460952792061214e+00 3.549494791329052545e-02 8.936396258708422025e+00 7.189942458171901762e+01
2.460914245312004311e+00 3.559893996802232508e-02 9.019763051628139294e+00 7.230828551751757516e+01
2.478367537831947853e+00 3.570327019094413773e-02 9.103041575361766391e+00 7.266234487489820992e+01
2.495820830351891395e+00 3.580797284661511870e-02 9.186194705137646466e+00 7.295524985184329125e+01
2.513274122871834493e+00 3.591308280970858385e-02 9.269182954336278257e+00 7.318366805991080071e+01
2.530727415391777591e+00 3.601863556501200270e-02 9.351966561670664646e+00 7.334621682022276445e+01
2.548180707911721132e+00 3.612466721196376518e-02 9.434508245386382441e+00 7.344412899275876327e+01
2.565634000431664674e+00 3.623121462659248393e-02 9.516773507377147112e+00 7.347901106932785353e+01
2.583087292951607772e+00 3.633831566389632978e-02 9.598727623274589504e+00 7.344982419489301151e+01
2.600540585471550870e+00 3.644600917059405421e-02 9.680334258179364326e+00 7.335442291620802280e+01
2.617993877991494411e+00 3.655433498512494772e-02 9.761555744813152913e+00 7.319105541793034320e+01
2.635447170511437509e+00 3.666333393765104642e-02 9.842354325095879375e+00 7.295925673385342236e+01
2.652900463031380607e+00 3.677304793787179726e-02 9.922692487599292122e+00 7.265899337698064642e+01
2.670353755551324149e+00 3.688352029608100990e-02 1.000253296755370691e+01 7.229021321124767496e+01
2.687807048071267690e+00 3.699479579651970135e-02 1.008183874684800330e+01 7.185302024129899223e+01
2.705260340591210788e+00 3.710692069737609594e-02 1.016057305402963351e+01 7.134772685346371190e+01
2.722713633111153886e+00 3.721994273078559762e-02 1.023869936430460825e+01 7.077485506296100937e+01
2.740166925631096984e+00 3.733391120364804028e-02 1.031618091225196032e+01 7.013462985952031659e+01
2.757620218151040525e+00 3.744887741399494790e-02 1.039297934254995681e+01 6.942600762597240305e+01
2.775073510670984067e+00 3.756489475846164910e-02 1.046905662216434152e+01 6.864985158937365384e+01
2.792526803190927165e+00 3.768201873228738119e-02 1.054437564021676188e+01 6.780781024204782170e+01
2.809980095710870263e+00 3.780030693421217169e-02 1.061890020798478318e+01 6.690176495158814873e+01
2.827433388230813804e+00 3.791981936556187982e-02 1.069259505890187967e+01 6.593365977777799003e+01
2.844886680750756902e+00 3.804061889688813841e-02 1.076542572035970657e+01 6.490530778396221478e+01
2.862339973270700000e+00 3.816277130846897070e-02 1.083735656427679039e+01 6.381701297668858786e+01
2.879793265790643542e+00 3.828634529036263612e-02 1.090834929029647071e+01 6.266800184195488299e+01
2.897246558310587083e+00 3.841141265783298842e-02 1.097836388928346807e+01 6.145853716987518567e+01
2.914699850830530625e+00 3.853804905635952599e-02 1.104736404883766454e+01 6.019358501129207895e+01
2.932153143350473723e+00 3.866633410563240225e-02 1.111531719313371269e+01 5.887831492465753769e+01
2.949606435870416821e+00 3.879635140110229002e-02 1.118218274674461021e+01 5.750795209491570859e+01
2.967059728390360362e+00 3.892818888086124057e-02 1.124791684789146728e+01 5.608205687203621892e+01
2.984513020910303460e+00 3.906193966386919958e-02 1.131250172823509814e+01 5.462521819118715882e+01
3.001966313430246558e+00 3.919770216648352235e-02 1.137593967894147262e+01 5.315652604324177588e+01
3.019419605950190100e+00 3.933558020355027579e-02 1.143824184241064934e+01 5.168533206784910305e+01
3.036872898470133197e+00 3.947568409230074737e-02 1.149942621489845607e+01 5.021881856409368083e+01
3.054326190990076295e+00 3.961813133209082793e-02 1.155951129355691442e+01 4.875869454193944108e+01
3.071779483510019837e+00 3.976304664860608878e-02 1.161851230277372160e+01 4.730376111688409679e+01
3.089232776029963379e+00 3.991056272043377873e-02 1.167644290957462161e+01 4.585421877406282221e+01
3.106686068549906921e+00 4.006082087320460977e-02 1.173332219628025186e+01 4.441575947161028637e+01
3.124139361069850018e+00 4.021397138591050607e-02 1.178916836203816665e+01 4.298907257063164167e+01
3.141592653589793116e+00 4.037017679500374406e-02 1.184399204260044769e+01 4.156906217877133969e+01
3.159045946109736214e+00 4.052961405678314616e-02 1.189781057727736524e+01 4.016142299398914872e+01
3.176499238629679756e+00 4.069247247094254921e-02 1.195064324140435197e+01 3.876891002122736296e+01
3.193952531149622853e+00 4.085894709349358750e-02 1.200250567186572681e+01 3.739183223428188541e+01
3.211405823669565951e+00 4.102923270444996245e-02 1.205341104454348589e+01 3.603260297888049024e+01
3.228859116189509493e+00 4.120348319925332126e-02 1.210337783232278674e+01 3.470675433334328375e+01
3.246312408709452590e+00 4.138179355926279585e-02 1.215242407659931878e+01 3.342659168997425212e+01
3.263765701229396576e+00 4.156423870702815465e-02 1.220056197886065164e+01 3.219101561566633052e+01
3.281218993749339674e+00 4.175090365232257683e-02 1.224780871279194194e+01 3.100040870458563091e+01
3.298672286269282772e+00 4.194187781256346337e-02 1.229418231875381906e+01 2.985354488556070507e+01
3.316125578789226314e+00 4.213724800419145489e-02 1.233969832818064383e+01 2.874818419071374365e+01
3.333578871309169411e+00 4.233709955064278441e-02 1.238437159955976519e+01 2.768306791470063999e+01
3.351032163829112509e+00 4.254151842587919341e-02 1.242821946708860992e+01 2.665854218119826058e+01
3.368485456349056051e+00 4.275059128937905295e-02 1.247125936876554775e+01 2.567343116815487747e+01
3.385938748868999149e+00 4.296440521322082012e-02 1.251350492666158587e+01 2.472430173690930388e+01
3.403392041388942246e+00 4.318304648885858826e-02 1.255497302020394912e+01 2.381210016750126712e+01
3.420845333908885788e+00 4.340659733675519827e-02 1.259568171279661364e+01 2.293678327171530640e+01
3.438298626428828886e+00 4.363513680078671270e-02 1.263564521575991684e+01 2.209529313298948594e+01
