# angles(rad), pulling distance(m),                                     elastic band force(n), cable force(n)
0.000000000000000000e+00 3.315884722211935283e-04 2.244172060585433032e-02 1.518842981414832150e-02
1.745329251994329547e-02 6.583489580231856363e-04 4.519831607800970513e-02 3.147748395848455616e-02
3.490658503988659095e-02 9.805134607713732273e-04 6.828829040591934130e-02 4.894315974972465039e-02
5.235987755982988295e-02 1.298228205322964155e-03 9.173035192257310289e-02 6.768173619855662182e-02
6.981317007977318190e-02 1.611518223674866107e-03 1.155434133044975914e-01 8.782413202218669612e-02
8.726646259971647390e-02 1.920417051534881615e-03 1.397466811450453761e-01 1.094962508279228169e-01
1.047197551196597659e-01 2.224961658473519326e-03 1.643604851170138159e-01 1.328388902392530491e-01
1.221730476396030718e-01 2.525184187856313600e-03 1.894067265428734104e-01 1.580136777352209032e-01
1.396263401595463638e-01 2.821095096629046371e-03 2.149088682409680817e-01 1.852123814153670556e-01
1.570796326794896558e-01 3.112732591612569263e-03 2.408919145703296016e-01 2.146193779713787830e-01
1.745329251994329478e-01 3.400136744044060955e-03 2.673825360698161568e-01 2.464518866089352167e-01
1.919862177193762398e-01 3.683318725839359632e-03 2.944093600629251184e-01 2.809836242369505022e-01
2.094395102393195318e-01 3.962313735940961243e-03 3.220031144480112739e-01 3.184743285578996441e-01
2.268928027592628516e-01 4.237163580885502413e-03 3.501968778826343720e-01 3.592277060428687441e-01
2.443460952792061436e-01 4.507874953605584510e-03 3.790262932843729282e-01 4.036441597366920431e-01
2.617993877991494078e-01 4.774490405591466820e-03 4.085298783919490972e-01 4.520779252045313279e-01
2.792526803190927276e-01 5.037040298894383643e-03 4.387493520229782118e-01 5.050001851949778020e-01
2.967059728390360474e-01 5.295542602978475615e-03 4.697299795823443036e-01 5.629555064304276879e-01
3.141592653589793116e-01 5.550042352731611971e-03 5.015210375405106946e-01 6.264793732471491960e-01
3.316125578789225758e-01 5.800552876863444320e-03 5.341762775365684890e-01 6.963242204538105939e-01
3.490658503988658956e-01 6.047110385038434802e-03 5.677545050120915704e-01 7.732147384462770834e-01
3.665191429188092154e-01 6.289749321823578931e-03 6.023202809356283938e-01 8.580513968975401751e-01
3.839724354387524796e-01 6.528484596721686149e-03 6.379444811032505269e-01 9.519440267196196404e-01
4.014257279586957439e-01 6.763360599535694039e-03 6.747060562575111220e-01 1.056014965214915780e+00
4.188790204786390636e-01 6.994395306545316514e-03 7.126888874547522290e-01 1.171682906811746028e+00
4.363323129985823834e-01 7.221619123213725115e-03 7.519668616270167583e-01 1.299852075475288027e+00
4.537856055185257032e-01 7.445073626511125933e-03 7.925961743003870907e-01 1.441127268153926444e+00
4.712388980384689674e-01 7.664768053401846935e-03 8.346281808082577358e-01 1.596813247558377613e+00
4.886921905584122872e-01 7.880741286332860335e-03 8.781154390950723920e-01 1.768128040096747844e+00
5.061454830783556069e-01 8.093031752955365254e-03 9.231104101767964032e-01 1.956532804885743992e+00
5.235987755982988157e-01 8.301648990077705598e-03 9.696663126146642941e-01 2.163948236976305228e+00
5.410520681182421354e-01 8.506630387248848707e-03 1.017828782063582516e+00 2.391492510875909083e+00
5.585053606381854552e-01 8.708013605781540073e-03 1.067648969052975350e+00 2.641256389921942560e+00
5.759586531581287749e-01 8.905818585772051765e-03 1.119179256902424591e+00 2.915580248084799209e+00
5.934119456780720947e-01 9.100069922478703360e-03 1.172472268664267014e+00 3.216687177742306059e+00
6.108652381980153034e-01 9.290802840392894946e-03 1.227580660131204704e+00 3.546844263463066138e+00
6.283185307179586232e-01 9.478050736281608615e-03 1.284557009623880752e+00 3.908688467564692903e+00
6.457718232379019430e-01 9.661821231438733754e-03 1.343453667854064282e+00 4.305638478910037925e+00
6.632251157578451517e-01 9.842221823990334253e-03 1.404322628192494982e+00 4.738324699979012067e+00
6.806784082777884715e-01 1.001940157539089882e-02 1.467215445672902963e+00 5.208118450314477954e+00
6.981317007977317912e-01 1.019352724419233212e-02 1.532183173197984694e+00 5.716702172633540080e+00
7.155849933176750000e-01 1.036475355201701629e-02 1.599276551771676491e+00 6.266611042148283239e+00
7.330382858376184307e-01 1.053322590629233654e-02 1.668545688355474788e+00 6.860396750562578028e+00
7.504915783575616395e-01 1.069908122442078148e-02 1.740038324487104493e+00 7.500508768208903554e+00
7.679448708775049592e-01 1.086244856872548535e-02 1.813754596631798277e+00 8.184207683490388519e+00
7.853981633974482790e-01 1.102344979710757032e-02 1.889651586950978901e+00 8.907936271211854162e+00
8.028514559173914877e-01 1.118220013667178998e-02 1.967663196011499860e+00 9.669306688186855681e+00
8.203047484373349185e-01 1.133880870392993401e-02 2.047710005309196113e+00 1.046639115354310867e+01
8.377580409572781273e-01 1.149337897770318952e-02 2.129712567257338041e+00 1.129854288700069809e+01
8.552113334772214470e-01 1.164600922925826745e-02 2.213595159496265286e+00 1.216548477475855528e+01
8.726646259971647668e-01 1.179679291446905989e-02 2.299285785247167979e+00 1.306688037519094436e+01
8.901179185171079755e-01 1.194581903198366213e-02 2.386714327246585388e+00 1.400203919154254883e+01
9.075712110370514063e-01 1.209317245098831539e-02 2.475806686434064652e+00 1.496914425715368324e+01
9.250245035569946150e-01 1.223893421171709864e-02 2.566489027685365354e+00 1.596682371718399374e+01
9.424777960769379348e-01 1.238318180148631313e-02 2.658689302762138773e+00 1.699382883627635010e+01
9.599310885968812546e-01 1.252598940870010107e-02 2.752337066035440927e+00 1.804877310370176602e+01
9.773843811168245743e-01 1.266742815698520576e-02 2.847362320907198985e+00 1.912992963647013056e+01
9.948376736367677831e-01 1.280756632136241351e-02 2.943693061526661658e+00 2.023489704131986500e+01
1.012290966156711214e+00 1.294646952815089840e-02 3.041252451575036098e+00 2.136039484031415370e+01
1.029744258676654312e+00 1.308420094055334076e-02 3.139970665317721288e+00 2.250556281081875554e+01
1.047197551196597631e+00 1.322082143153599336e-02 3.239778532338005057e+00 2.366814689399839367e+01
1.064650843716540951e+00 1.335638974410618615e-02 3.340608591232787639e+00 2.484605396441870795e+01
1.082104136236484271e+00 1.349096264041652407e-02 3.442381090044772218e+00 2.603345361528555912e+01
1.099557428756427591e+00 1.362459504074053397e-02 3.545016040018328596e+00 2.722712029721459004e+01
1.117010721276370910e+00 1.375734015366608665e-02 3.648459780755279436e+00 2.843120317817685816e+01
1.134464013796314230e+00 1.388924959999676516e-02 3.752622622766467408e+00 2.963274035757395453e+01
1.151917306316257550e+00 1.402037352778572055e-02 3.857449927377960108e+00 3.083846597484953023e+01
1.169370598836200648e+00 1.415076071961740567e-02 3.962849452418106821e+00 3.203400918624396354e+01
1.186823891356144189e+00 1.428045869382326728e-02 4.068764185092295982e+00 3.322658457982993951e+01
1.204277183876087287e+00 1.440951380291847356e-02 4.175124722422358658e+00 3.440921572266254458e+01
1.221730476396030607e+00 1.453797132554815984e-02 4.281844996128039149e+00 3.557282287541782040e+01
1.239183768915973927e+00 1.466587555189046745e-02 4.388855790510478805e+00 3.671926706437089649e+01
1.256637061435917246e+00 1.479326986595339358e-02 4.496087068627465655e+00 3.784479444318322550e+01
1.274090353955860566e+00 1.492019682732604116e-02 4.603467472930974580e+00 3.894540553839397745e+01
1.291543646475803886e+00 1.504669824595874714e-02 4.710924972055094528e+00 4.001727581634595765e+01
1.308996938995747206e+00 1.517281525306209133e-02 4.818387420650535269e+00 4.105677119980176570e+01
1.326450231515690303e+00 1.529858837319802989e-02 4.925782892988453732e+00 4.206040049374357892e+01
1.343903524035633845e+00 1.542405759275051157e-02 5.033039805973562153e+00 4.302476053053718630e+01
1.361356816555576943e+00 1.554926242318825994e-02 5.140086815173780188e+00 4.394646106464728774e+01
1.378810109075520263e+00 1.567424196559295130e-02 5.246852441807754452e+00 4.482201470955121181e+01
1.396263401595463582e+00 1.579903497499110174e-02 5.353262760322750502e+00 4.564697959987289977e+01
1.413716694115406902e+00 1.592367991892141774e-02 5.459240891232528980e+00 4.641665579010566489e+01
1.431169986635350000e+00 1.604821503700491758e-02 5.564715051515182864e+00 4.712997075068192032e+01
1.448623279155293542e+00 1.617267840272207727e-02 5.669614241878361938e+00 4.778417650990721910e+01
1.466076571675236861e+00 1.629710797967328512e-02 5.773867686307684544e+00 4.837640766172312823e+01
1.483529864195180181e+00 1.642154167856119465e-02 5.877404313776525058e+00 4.890368335569621649e+01
1.500983156715123279e+00 1.654601741803722256e-02 5.980152456639252989e+00 4.936299728301729317e+01
1.518436449235066599e+00 1.667057318076117789e-02 6.082039800461515711e+00 4.975144198375387106e+01
1.535889741755009918e+00 1.679524706991498972e-02 6.182993492691394088e+00 5.006629907489519837e+01
1.553343034274953460e+00 1.692007737080338317e-02 6.282940263188671715e+00 5.030506087576094387e+01
1.570796326794896558e+00 1.704510260881782896e-02 6.381806515354761622e+00 5.046543419892140037e+01
1.588249619314839878e+00 1.717036160753029547e-02 6.479518652600853024e+00 5.054547955671372250e+01
1.605702911834782975e+00 1.729589355269906328e-02 6.576004412487154838e+00 5.054416880910007137e+01
1.623156204354726295e+00 1.742173805447437204e-02 6.671198132591415586e+00 5.046356088944231288e+01
1.640609496874669837e+00 1.754793520930948356e-02 6.765067702780977577e+00 5.032078563047365805e+01
1.658062789394613157e+00 1.767452566791056709e-02 6.857613471883565737e+00 5.013356614526875177e+01
1.675516081914556255e+00 1.780155070437622333e-02 6.948839740815880184e+00 4.990486447406954085e+01
1.692969374434499574e+00 1.792905228467948572e-02 7.038764627134408869e+00 4.964331480538817232e+01
1.710422666954442894e+00 1.805707314018015902e-02 7.127386376311482863e+00 4.933894913131999260e+01
1.727875959474386436e+00 1.818565684646446939e-02 7.214722161822555435e+00 4.900336484730844688e+01
1.745329251994329534e+00 1.831484790185313599e-02 7.300771725989198657e+00 4.862784216844757168e+01
1.762782544514272853e+00 1.844469180970565933e-02 7.385554617642922537e+00 4.822472515703060481e+01
1.780235837034215951e+00 1.857523516814109377e-02 7.469067814492859725e+00 4.778226469374831709e+01
1.797689129554159271e+00 1.870652576332698311e-02 7.551323903498392554e+00 4.731050005800702252e+01
1.815142422074102813e+00 1.883861266594519246e-02 7.632334290507008845e+00 4.680996695336772007e+01
1.832595714594046132e+00 1.897154633378544258e-02 7.712109145486175876e+00 4.628115650912548062e+01
1.850049007113989230e+00 1.910537872284132424e-02 7.790650887748908460e+00 4.572071816105763986e+01
1.867502299633932550e+00 1.924016340438575168e-02 7.867968621299508136e+00 4.513372695439441884e+01
1.884955592153875870e+00 1.937595568829677053e-02 7.944071716555233031e+00 4.452156110427176117e+01
1.902408884673818967e+00 1.951281275496457093e-02 8.018969410374600315e+00 4.388537108595053127e+01
1.919862177193762509e+00 1.965079379678943278e-02 8.092671178564211587e+00 4.322653078633498325e+01
1.937315469713705829e+00 1.978996017076875905e-02 8.165185558001779143e+00 4.254572040649940590e+01
1.954768762233649149e+00 1.993037556134811400e-02 8.236516161568060213e+00 4.184125875831536234e+01
1.972222054753592246e+00 2.007210615514090635e-02 8.306671584339014203e+00 4.111730863632455879e+01
1.989675347273535566e+00 2.021522082932547190e-02 8.375665576868287943e+00 4.037815210290106194e+01
2.007128639793478886e+00 2.035979135509596513e-02 8.443508337786749252e+00 3.962293935230507458e+01
2.024581932313422428e+00 2.050589261770457972e-02 8.510201362251871515e+00 3.884778663249669961e+01
2.042035224833365525e+00 2.065360285482504762e-02 8.575752136468620890e+00 3.805742939658131263e+01
2.059488517353308623e+00 2.080300391519332437e-02 8.640172781026258519e+00 3.725579311626351142e+01
2.076941809873252165e+00 2.095418153974462974e-02 8.703472641430625600e+00 3.644246990061869695e+01
2.094395102393195263e+00 2.110722566776977727e-02 8.765659599817324121e+00 3.561781270538038058e+01
2.111848394913138804e+00 2.126223077096106237e-02 8.826741831049272236e+00 3.478318290485685083e+01
2.129301687433081902e+00 2.141929621861096006e-02 8.886727657315327988e+00 3.393984541486830153e+01
2.146754979953025444e+00 2.157852667766749916e-02 8.945625194489775112e+00 3.308885093737256256e+01
2.164208272472968542e+00 2.174003255183935487e-02 9.003442324839641131e+00 3.223122385869600492e+01
2.181661564992911639e+00 2.190393046448232267e-02 9.060186971614838214e+00 3.136813038866882053e+01
2.199114857512855181e+00 2.207034379058697010e-02 9.115867483359050283e+00 3.050093272858963545e+01
2.216568150032798723e+00 2.223940324382463543e-02 9.170492662571982478e+00 2.963098457793091356e+01
2.234021442552741821e+00 2.241124752602545109e-02 9.224071765709350501e+00 2.875961225779243335e+01
2.251474735072684918e+00 2.258602405032895596e-02 9.276614503182887717e+00 2.788811154280274707e+01
2.268928027592628460e+00 2.276388974281342778e-02 9.328131039360348709e+00 2.701774543729113276e+01
2.286381320112572002e+00 2.294501193328237626e-02 9.378631992565502173e+00 2.614974201441598467e+01
2.303834612632515100e+00 2.312956935774287959e-02 9.428120551231296886e+00 2.528124232182601716e+01
2.321287905152458197e+00 2.331775327376017781e-02 9.476602527262949494e+00 2.441464851576455430e+01
2.338741197672401295e+00 2.350976871935851753e-02 9.524090224524217163e+00 2.355420481211154637e+01
2.356194490192344837e+00 2.370583592579776286e-02 9.570590729134602626e+00 2.269820162211205172e+01
2.373647782712288379e+00 2.390619192013512459e-02 9.616113178879860612e+00 2.184856162542278568e+01
2.391101075232231477e+00 2.411109233556134671e-02 9.660665292214368094e+00 2.100547498111142630e+01
2.408554367752174574e+00 2.432081346686429044e-02 9.704255359505529199e+00 2.017007735479021235e+01
2.426007660272118116e+00 2.453565455615435570e-02 9.746892155382985479e+00 1.934342507021862900e+01
2.443460952792061214e+00 2.475591883419076683e-02 9.788584424586428412e+00 1.852811997427155788e+01
2.460914245312004311e+00 2.498175059885912944e-02 9.829346939043807296e+00 1.774191940171755633e+01
2.478367537831947853e+00 2.521301555087886170e-02 9.869196646471827705e+00 1.700580202390344198e+01
2.495820830351891395e+00 2.544960659878527098e-02 9.908151733484601209e+00 1.631392718909389572e+01
2.513274122871834493e+00 2.569139022164066213e-02 9.946229235440666727e+00 1.566390472172156834e+01
2.530727415391777591e+00 2.593823309829046408e-02 9.983464096273596766e+00 1.505949457811124859e+01
2.548180707911721132e+00 2.619003562883083155e-02 1.001990428092487129e+01 1.450053585249633414e+01
2.565634000431664674e+00 2.644665177293464842e-02 1.005559387889654133e+01 1.398509451373506707e+01
2.583087292951607772e+00 2.670797299703939198e-02 1.009057336523331294e+01 1.350686590301191892e+01
2.600540585471550870e+00 2.697386805262718540e-02 1.012488057793798113e+01 1.306366644647871311e+01
2.617993877991494411e+00 2.724422537182175780e-02 1.015855094674386550e+01 1.265148500248519703e+01
2.635447170511437509e+00 2.751890363023312691e-02 1.019161751809943617e+01 1.226896696666214481e+01
2.652900463031380607e+00 2.779779901968294428e-02 1.022411128689460114e+01 1.191198997400969617e+01
2.670353755551324149e+00 2.808078488829788763e-02 1.025606143186379526e+01 1.157947042249290170e+01
2.687807048071267690e+00 2.836772518810994764e-02 1.028749532059265093e+01 1.126980014372075800e+01
2.705260340591210788e+00 2.865850206561813482e-02 1.031843855113038444e+01 1.098044059119134275e+01
2.722713633111153886e+00 2.895299512624973856e-02 1.034891529811602418e+01 1.070997301057094653e+01
2.740166925631096984e+00 2.925108275223983756e-02 1.037894848441253970e+01 1.045708933267346730e+01
2.757620218151040525e+00 2.955264483401932873e-02 1.040855978234014501e+01 1.022048139784157073e+01
2.775073510670984067e+00 2.985756420376259671e-02 1.043776961659669666e+01 9.998889895566950514e+00
2.792526803190927165e+00 3.016569928911994047e-02 1.046659731377722657e+01 9.792065629988101705e+00
2.809980095710870263e+00 3.047693254065630269e-02 1.049506132044609252e+01 9.598315537966618294e+00
2.827433388230813804e+00 3.079115459280455311e-02 1.052317922038302456e+01 9.416579718521548514e+00
2.844886680750756902e+00 3.110822390469245025e-02 1.055096773458312676e+01 9.247054373427861407e+00
2.862339973270700000e+00 3.142802325252001122e-02 1.057844272331366930e+01 9.088279778683190813e+00
2.879793265790643542e+00 3.175044171732204629e-02 1.060561929526470415e+01 8.939450041734289698e+00
2.897246558310587083e+00 3.207535449488774920e-02 1.063251196900719009e+01 8.800413378256950026e+00
2.914699850830530625e+00 3.240263175307222382e-02 1.065913468601661052e+01 8.670786594990550711e+00
2.932153143350473723e+00 3.273214144373019774e-02 1.068550081067297519e+01 8.550135379245162426e+00
2.949606435870416821e+00 3.306375443210860660e-02 1.071162313026081847e+01 8.437921689421228777e+00
2.967059728390360362e+00 3.339736664048447573e-02 1.073751386709583144e+01 8.333092699115439927e+00
2.984513020910303460e+00 3.373286198867760100e-02 1.076318479930517036e+01 8.235613066697581530e+00
3.001966313430246558e+00 3.407009534345349644e-02 1.078864733012382082e+01 8.145880626706883731e+00
3.019419605950190100e+00 3.440895090883228785e-02 1.081391248871723576e+01 8.062881119787332906e+00
3.036872898470133197e+00 3.474932028977681386e-02 1.083899093018133364e+01 7.986176630169980584e+00
3.054326190990076295e+00 3.509107691574866322e-02 1.086389293554250912e+01 7.915946599566064279e+00
3.071779483510019837e+00 3.543408736034701911e-02 1.088862841377343749e+01 7.852105827533931048e+00
3.089232776029963379e+00 3.577822230622263594e-02 1.091320696573161442e+01 7.794350084240219800e+00
3.106686068549906921e+00 3.612336992385960927e-02 1.093763795971986674e+01 7.742118258532086905e+00
3.124139361069850018e+00 3.646941982172482999e-02 1.096193053584693544e+01 7.695235100037749021e+00
3.141592653589793116e+00 3.681624564911857578e-02 1.098609360602746321e+01 7.653921070616246602e+00
3.159045946109736214e+00 3.716371849149451706e-02 1.101013585398200156e+01 7.618103746024626588e+00
3.176499238629679756e+00 3.751171181775871805e-02 1.103406573523701084e+01 7.587613407382469255e+00
3.193952531149622853e+00 3.786010148544882020e-02 1.105789148080953588e+01 7.562293989289575968e+00
3.211405823669565951e+00 3.820876545749089803e-02 1.108162115463997033e+01 7.542025462852212314e+00
3.228859116189509493e+00 3.855758238695677215e-02 1.110526269901008334e+01 7.526743648665312314e+00
3.246312408709452590e+00 3.890643020474034847e-02 1.112882393578317419e+01 7.516425283178867822e+00
3.263765701229396576e+00 3.925518583728749428e-02 1.115231256640406876e+01 7.511062933316383194e+00
3.281218993749339674e+00 3.960372520659601742e-02 1.117573617189911950e+01 7.510659003219505081e+00
3.298672286269282772e+00 3.995192323021568015e-02 1.119910221287621432e+01 7.515225919219305162e+00
3.316125578789226314e+00 4.029965382124820611e-02 1.122241802995159254e+01 7.524786506497011196e+00
3.333578871309169411e+00 4.064678988834726642e-02 1.124569087474539408e+01 7.539384210754369597e+00
3.351032163829112509e+00 4.099320449565552194e-02 1.126892796130784014e+01 7.559065033012800860e+00
3.368485456349056051e+00 4.133877635020694052e-02 1.129213647096348438e+01 7.583767452919516039e+00
3.385938748868999149e+00 4.168339142303334466e-02 1.131532355231121301e+01 7.613402557567757079e+00
3.403392041388942246e+00 4.202694508068824386e-02 1.133849632122423756e+01 7.647840423717352287e+00
3.420845333908885788e+00 4.236936897465258534e-02 1.136166186085010388e+01 7.686351118962174489e+00
3.438298626428828886e+00 4.271064944853636414e-02 1.138482722161068850e+01 7.727767920157563530e+00
