# angles(rad), pulling distance(m),                                     elastic band force(n), cable force(n)
0.000000000000000000e+00 3.174351447517262566e-04 2.129609685170902669e-02 1.428713072939932598e-02
1.745329251994329547e-02 6.300266649927079281e-04 4.290902971834737595e-02 2.966779066688349578e-02
3.490658503988659095e-02 9.378320554058604437e-04 6.485849766910216363e-02 4.625031140654228129e-02
5.235987755982988295e-02 1.240920426269256395e-03 8.716435808206438041e-02 6.414881570102475006e-02
6.981317007977318190e-02 1.539324445657006208e-03 1.098466266442288120e-01 8.349655246951044607e-02
8.726646259971647390e-02 1.833082077380057424e-03 1.329254790897151650e-01 1.044319257396977285e-01
1.047197551196597659e-01 2.122229947419676781e-03 1.564217134089763706e-01 1.271087084395273181e-01
1.221730476396030718e-01 2.406805031208408829e-03 1.803578314281137074e-01 1.517021898496213606e-01
1.396263401595463638e-01 2.686844272816589930e-03 2.047581935357013772e-01 1.784097842172085169e-01
1.570796326794896558e-01 2.962384706811002719e-03 2.296490295758860933e-01 2.074525418682045541e-01
1.745329251994329478e-01 3.233463439928455866e-03 2.550584537174276911e-01 2.390777157935083386e-01
1.919862177193762398e-01 3.500117659844246588e-03 2.810165377583277446e-01 2.735621775015250612e-01
2.094395102393195318e-01 3.762384629052097432e-03 3.075557633105884259e-01 3.112207304278817865e-01
2.268928027592628516e-01 4.020301677138661545e-03 3.347112133358590702e-01 3.524091832653511447e-01
2.443460952792061436e-01 4.273906189587602621e-03 3.625208614595249457e-01 3.975314751825386739e-01
2.617993877991494078e-01 4.523235595259502730e-03 3.910258379212313007e-01 4.470464394613487547e-01
2.792526803190927276e-01 4.768327353407759810e-03 4.202709860821937649e-01 5.014810513657804725e-01
2.967059728390360474e-01 5.009218941289223827e-03 4.503053952731078113e-01 5.614416269763611300e-01
3.141592653589793116e-01 5.245947843218231287e-03 4.811821806995671413e-01 6.276106898409855583e-01
3.316125578789225758e-01 5.478551541826878410e-03 5.129592222235479504e-01 7.007767547209847736e-01
3.490658503988658956e-01 5.707067512180655222e-03 5.457036132107595527e-01 7.819467692539698866e-01
3.665191429188092154e-01 5.931533219314165904e-03 5.794787523821708364e-01 8.719361081264117574e-01
3.839724354387524796e-01 6.151986119622776875e-03 6.143280754050182146e-01 9.711334036351219057e-01
4.014257279586957439e-01 6.368463666612802707e-03 6.502964083551837637e-01 1.080485161497777069e+00
4.188790204786390636e-01 6.581003320869212476e-03 6.874305500451270978e-01 1.201053212243174073e+00
4.363323129985823834e-01 6.789642566145980170e-03 7.257733198985695244e-01 1.333793138185701554e+00
4.537856055185257032e-01 6.994418925581011651e-03 7.653646540592066172e-01 1.479751269003889202e+00
4.712388980384689674e-01 7.195370000449816811e-03 8.062488945181025546e-01 1.640343237512800201e+00
4.886921905584122872e-01 7.392533452399013827e-03 8.484740324832894531e-01 1.817118371954493661e+00
5.061454830783556069e-01 7.585947200862890559e-03 8.920847302964518555e-01 2.011461848275029940e+00
5.235987755982988157e-01 7.775648941896089357e-03 9.371190632407769838e-01 2.224678153853815843e+00
5.410520681182421354e-01 7.961677737428585547e-03 9.836200217729381690e-01 2.458720098302033641e+00
5.585053606381854552e-01 8.144070104626685569e-03 1.031633065202532284e+00 2.715675218424952408e+00
5.759586531581287749e-01 8.322867316803126553e-03 1.081206662926816664e+00 2.997770687378333854e+00
5.934119456780720947e-01 8.498200657348317297e-03 1.132386160553118915e+00 3.305415537962019368e+00
6.108652381980153034e-01 8.670251416985332027e-03 1.185204791152374204e+00 3.638513086511057537e+00
6.283185307179586232e-01 8.839192322209367750e-03 1.239706804533980744e+00 3.999417237665345848e+00
6.457718232379019430e-01 9.005182594395646015e-03 1.295943946892125442e+00 4.390629840510178461e+00
6.632251157578451517e-01 9.168372743099721667e-03 1.353961751900365273e+00 4.813641603625152143e+00
6.806784082777884715e-01 9.328903663856176129e-03 1.413793708680798789e+00 5.269392567838839803e+00
6.981317007977317912e-01 9.486907988847513573e-03 1.475473111810738924e+00 5.759734796864038664e+00
7.155849933176750000e-01 9.642510698916266845e-03 1.538988953362374179e+00 6.282035735000345511e+00
7.330382858376184307e-01 9.795829709409922120e-03 1.604277659113474419e+00 6.831586747897601342e+00
7.504915783575616395e-01 9.946976450749649146e-03 1.671278992140349473e+00 7.408556700638812664e+00
7.679448708775049592e-01 1.009605639913113174e-02 1.739940834176565865e+00 8.013656028568409084e+00
7.853981633974482790e-01 1.024316952778167242e-02 1.810210044957584197e+00 8.646545170635489441e+00
8.028514559173914877e-01 1.038841071211810303e-02 1.882031179717770897e+00 9.306562432614308378e+00
8.203047484373349185e-01 1.053187015348612532e-02 1.955346489190400217e+00 9.992847568216390641e+00
8.377580409572781273e-01 1.067363369031654706e-02 2.030096487538362915e+00 1.070442459905757460e+01
8.552113334772214470e-01 1.081378314282164903e-02 2.106222280165505722e+00 1.144048996700220400e+01
8.726646259971647668e-01 1.095239660524325968e-02 2.183666356001319642e+00 1.220025962268415753e+01
8.901179185171079755e-01 1.108954869631459741e-02 2.262372643589437793e+00 1.298288276372131200e+01
9.075712110370514063e-01 1.122531084297898572e-02 2.342286511087631418e+00 1.378743475179319589e+01
9.250245035569946150e-01 1.135975146295753815e-02 2.423354726597877207e+00 1.461292303360025180e+01
9.424777960769379348e-01 1.149293622790808697e-02 2.505523074921581106e+00 1.545782603811139921e+01
9.599310885968812546e-01 1.162492820352881845e-02 2.588732683679614510e+00 1.631973707303773935e+01
9.773843811168245743e-01 1.175578808636384455e-02 2.672924060381968836e+00 1.719680253329517683e+01
9.948376736367677831e-01 1.188557431539336018e-02 2.758046047153241531e+00 1.808900381002267110e+01
1.012290966156711214e+00 1.201434328344250582e-02 2.844045811407433622e+00 1.899427113649087673e+01
1.029744258676654312e+00 1.214214942863974141e-02 2.930862294720281369e+00 1.990883592562497739e+01
1.047197551196597631e+00 1.226904542053792839e-02 3.018435318265068279e+00 2.083072154138083221e+01
1.064650843716540951e+00 1.239508224192345694e-02 3.106710335754851560e+00 2.175911025124733911e+01
1.082104136236484271e+00 1.252030934401153137e-02 3.195632912069027665e+00 2.269188592224178791e+01
1.099557428756427591e+00 1.264477473323655406e-02 3.285147370532004452e+00 2.362650289170704099e+01
1.117010721276370910e+00 1.276852508617877524e-02 3.375198583738999059e+00 2.456079680210172000e+01
1.134464013796314230e+00 1.289160585486937710e-02 3.465731849115320173e+00 2.549253019436851275e+01
1.151917306316257550e+00 1.301406133710086149e-02 3.556693042246355407e+00 2.641948215205356476e+01
1.169370598836200648e+00 1.313593480181967678e-02 3.648013581613712031e+00 2.733479093755300937e+01
1.186823891356144189e+00 1.325726852825309318e-02 3.739641755322330230e+00 2.824083249043796329e+01
1.204277183876087287e+00 1.337810393005699899e-02 3.831527448780411849e+00 2.913571282745411395e+01
1.221730476396030607e+00 1.349848159824351516e-02 3.923615409703845813e+00 3.001534653151390231e+01
1.239183768915973927e+00 1.361844138888497827e-02 4.015837229274636044e+00 3.087266278170897493e+01
1.256637061435917246e+00 1.373802249998636732e-02 4.108150547609784375e+00 3.171378872275859351e+01
1.274090353955860566e+00 1.385726351183411663e-02 4.200490904203284082e+00 3.252864278417324329e+01
1.291543646475803886e+00 1.397620249083369147e-02 4.292802674823152920e+00 3.331760699207347898e+01
1.308996938995747206e+00 1.409487701458060106e-02 4.385036502438670603e+00 3.408049917404547813e+01
1.326450231515690303e+00 1.421332425776622096e-02 4.477124375892733710e+00 3.480780572657240413e+01
1.343903524035633845e+00 1.433158104782888964e-02 4.569024861567435813e+00 3.550710311140029063e+01
1.361356816555576943e+00 1.444968390426362714e-02 4.660665041375803952e+00 3.616374703470990681e+01
1.378810109075520263e+00 1.456766912981241960e-02 4.752006019673773451e+00 3.678874848065920133e+01
1.396263401595463582e+00 1.468557283069331018e-02 4.842974006624436001e+00 3.736571396364149678e+01
1.413716694115406902e+00 1.480343099663279476e-02 4.933530080825897279e+00 3.790667473171162527e+01
1.431169986635350000e+00 1.492127955205983444e-02 5.023600990399115673e+00 3.839506635431808235e+01
1.448623279155293542e+00 1.503915439185621490e-02 5.113147540052689344e+00 3.884329521654458262e+01
1.466076571675236861e+00 1.515709147013170367e-02 5.202096053524092767e+00 3.923437121407750539e+01
1.483529864195180181e+00 1.527512682013383409e-02 5.290409308233862795e+00 3.958248649650811757e+01
1.500983156715123279e+00 1.539329663203843103e-02 5.378010098913284409e+00 3.986787567429376367e+01
1.518436449235066599e+00 1.551163730721897248e-02 5.464865077551182004e+00 4.010884160036864898e+01
1.535889741755009918e+00 1.563018549371726282e-02 5.550894973544579614e+00 4.028259995788287284e+01
1.553343034274953460e+00 1.574897817946162987e-02 5.636059290808725031e+00 4.040578243974308492e+01
1.570796326794896558e+00 1.586805271462243122e-02 5.720298619919201855e+00 4.046827622739309049e+01
1.588249619314839878e+00 1.598744689615762271e-02 5.803553137131912898e+00 4.046863995694887706e+01
1.605702911834782975e+00 1.610719902585035571e-02 5.885812968907595533e+00 4.043067842949998436e+01
1.623156204354726295e+00 1.622734795524347767e-02 5.967088917968228934e+00 4.036497182178062104e+01
1.640609496874669837e+00 1.634793318730699829e-02 6.047394227949929757e+00 4.027341157342054601e+01
1.658062789394613157e+00 1.646899490368153307e-02 6.126747797505754711e+00 4.015962453367573914e+01
1.675516081914556255e+00 1.659057407139682278e-02 6.205167222004150496e+00 4.002376818415120141e+01
1.692969374434499574e+00 1.671271249751710153e-02 6.282669673434648772e+00 3.986642997509481035e+01
1.710422666954442894e+00 1.683545290610661063e-02 6.359271885480190178e+00 3.968817596623505040e+01
1.727875959474386436e+00 1.695883904117988228e-02 6.434987859550621359e+00 3.948834069791825385e+01
1.745329251994329534e+00 1.708291571523141636e-02 6.509834834522920666e+00 3.926938311797185577e+01
1.762782544514272853e+00 1.720772894690981297e-02 6.583829719837259731e+00 3.903189737958000194e+01
1.780235837034215951e+00 1.733332600870303442e-02 6.656989403547869166e+00 3.877664272355787034e+01
1.797689129554159271e+00 1.745975557137362591e-02 6.729330699403211824e+00 3.850432547190990817e+01
1.815142422074102813e+00 1.758706777872619254e-02 6.800870453418348838e+00 3.821570683940788626e+01
1.832595714594046132e+00 1.771531438360464047e-02 6.871625532275498216e+00 3.791152263826114677e+01
1.850049007113989230e+00 1.784454886087725664e-02 6.941612227552387715e+00 3.759217431391864039e+01
1.867502299633932550e+00 1.797482653694922744e-02 7.010845895385823034e+00 3.725784728339767327e+01
1.884955592153875870e+00 1.810620473951540105e-02 7.079343311421343543e+00 3.690998313182593904e+01
1.902408884673818967e+00 1.823874293173173219e-02 7.147121587327752046e+00 3.654943309411454067e+01
1.919862177193762509e+00 1.837250289290776051e-02 7.214198078798246705e+00 3.617697640194039366e+01
1.937315469713705829e+00 1.850754887202436805e-02 7.280589863734210354e+00 3.579309503340515164e+01
1.954768762233649149e+00 1.864394779280315398e-02 7.346312783223350351e+00 3.539772315184848850e+01
1.972222054753592246e+00 1.878176944373002172e-02 7.411382505814511745e+00 3.499135298605845179e+01
1.989675347273535566e+00 1.892108670032787918e-02 7.475816838371835971e+00 3.457570727879948436e+01
2.007128639793478886e+00 1.906197577168611615e-02 7.539633039954761529e+00 3.415103366787131733e+01
2.024581932313422428e+00 1.920451643451786053e-02 7.602845928299277745e+00 3.371654384219027634e+01
2.042035224833365525e+00 1.934879235191020938e-02 7.665473087337288050e+00 3.327421587878401255e+01
2.059488517353308623e+00 1.949489133268891838e-02 7.727531829599976199e+00 3.282438409794556833e+01
2.076941809873252165e+00 1.964290570980140732e-02 7.789037361301898166e+00 3.236637505753393640e+01
2.094395102393195263e+00 1.979293268142625489e-02 7.850006591006421175e+00 3.190152076293855998e+01
2.111848394913138804e+00 1.994507470750395486e-02 7.910457069203117086e+00 3.143056030708726567e+01
2.129301687433081902e+00 2.009943997886088490e-02 7.970405247579792629e+00 3.095328834757675907e+01
2.146754979953025444e+00 2.025614287551392306e-02 8.029867329652581986e+00 3.046993006431801732e+01
2.164208272472968542e+00 2.041530450581947528e-02 8.088859694903529629e+00 2.998090461057390144e+01
2.181661564992911639e+00 2.057705331777824262e-02 8.147399010463924895e+00 2.948665624768741722e+01
2.199114857512855181e+00 2.074152574233370516e-02 8.205502096069809070e+00 2.898753344311661451e+01
2.216568150032798723e+00 2.090886691660747559e-02 8.263185649624062989e+00 2.848371980281741855e+01
2.234021442552741821e+00 2.107923150382585292e-02 8.320466289452275177e+00 2.797539327336650672e+01
2.251474735072684918e+00 2.125278460434361361e-02 8.377360646879591144e+00 2.746275056563030503e+01
2.268928027592628460e+00 2.142970276702543114e-02 8.433885359744342836e+00 2.694595857583989584e+01
2.286381320112572002e+00 2.161017512374738617e-02 8.490057057084991143e+00 2.642515031541119441e+01
2.303834612632515100e+00 2.179440467924798411e-02 8.545892375588730161e+00 2.590043825449707526e+01
2.321287905152458197e+00 2.198260973148423100e-02 8.601407983781841793e+00 2.537192226579163545e+01
2.338741197672401295e+00 2.217502560036246212e-02 8.656620542449253719e+00 2.483964406615400122e+01
2.356194490192344837e+00 2.237190613010321336e-02 8.711546620749324177e+00 2.430362679519752334e+01
2.373647782712288379e+00 2.257352727845977208e-02 8.766202713972075955e+00 2.376369724355893709e+01
2.391101075232231477e+00 2.278018403036669720e-02 8.820605348174257898e+00 2.322034783623517384e+01
2.408554367752174574e+00 2.299220545791828135e-02 8.874771115673372179e+00 2.267265126976200662e+01
2.426007660272118116e+00 2.320964630436411769e-02 8.928716775644737424e+00 2.215156568016536198e+01
2.443460952792061214e+00 2.343240108319552539e-02 8.982459307099722068e+00 2.167136904480432236e+01
2.460914245312004311e+00 2.366038269771059827e-02 9.036015862144191502e+00 2.122705736306826552e+01
2.478367537831947853e+00 2.389350701560176773e-02 9.089403701693402837e+00 2.081565882159654990e+01
2.495820830351891395e+00 2.413168831459936228e-02 9.142640126857125793e+00 2.043491571171577093e+01
2.513274122871834493e+00 2.437483673475316845e-02 9.195742207759828091e+00 2.008292080894318943e+01
2.530727415391777591e+00 2.462284077884447503e-02 9.248726716424195970e+00 1.975932459634938709e+01
2.548180707911721132e+00 2.487560986401719798e-02 9.301610215037360518e+00 1.946051632742191373e+01
2.565634000431664674e+00 2.513305473476497645e-02 9.354409134644511070e+00 1.918479457127641297e+01
2.583087292951607772e+00 2.539508516027510002e-02 9.407139785054310366e+00 1.893080158138518954e+01
2.600540585471550870e+00 2.566160957748969337e-02 9.459818377345040830e+00 1.869734565607521048e+01
2.617993877991494411e+00 2.593253535558536285e-02 9.512461030795343220e+00 1.848333492012063317e+01
2.635447170511437509e+00 2.620776934670027494e-02 9.565083810683045584e+00 1.828775936933040924e+01
2.652900463031380607e+00 2.648721858942872098e-02 9.617702757492949672e+00 1.810967118353487493e+01
2.670353755551324149e+00 2.677079119257094394e-02 9.670333899851959458e+00 1.794816263992183636e+01
2.687807048071267690e+00 2.705839728193284999e-02 9.722993289850968779e+00 1.780236631094892630e+01
2.705260340591210788e+00 2.734994894736998694e-02 9.775697012585201406e+00 1.767150340618567128e+01
2.722713633111153886e+00 2.764534465739985902e-02 9.828461230333772392e+00 1.755580906839425026e+01
2.740166925631096984e+00 2.794448331032767588e-02 9.881302214955136165e+00 1.745470648039197670e+01
2.757620218151040525e+00 2.824728768643762836e-02 9.934236347071534468e+00 1.736633353939612334e+01
2.775073510670984067e+00 2.855365970400800674e-02 9.987280111921306158e+00 1.729149228270690841e+01
2.792526803190927165e+00 2.886350215667018992e-02 1.004045011579906088e+01 1.722974908714304831e+01
2.809980095710870263e+00 2.917672954811530162e-02 1.009376327735726164e+01 1.718018433359972263e+01
2.827433388230813804e+00 2.949324967976510448e-02 1.014723694499063278e+01 1.714298464888294404e+01
2.844886680750756902e+00 2.981295638878581414e-02 1.020088858457569359e+01 1.711863975152203921e+01
2.862339973270700000e+00 3.013577074442746334e-02 1.025473516035976829e+01 1.710526078867729538e+01
2.879793265790643542e+00 3.046160488743375819e-02 1.030879322441254864e+01 1.710297758517609878e+01
2.897246558310587083e+00 3.079036341818967154e-02 1.036307994704817936e+01 1.711218399238916632e+01
2.914699850830530625e+00 3.112194882223249387e-02 1.041761323905143399e+01 1.713304439265310464e+01
2.932153143350473723e+00 3.145626244093371188e-02 1.047240462939602956e+01 1.716345305120858455e+01
2.949606435870416821e+00 3.179320558681317244e-02 1.052745176871020050e+01 1.719892840149102042e+01
2.967059728390360362e+00 3.213268896317652418e-02 1.058274145241300168e+01 1.723549570763558236e+01
2.984513020910303460e+00 3.247464378033875637e-02 1.063825996416460740e+01 1.727188304403701125e+01
3.001966313430246558e+00 3.281895370383354493e-02 1.069399503761218639e+01 1.731087483101195446e+01
3.019419605950190100e+00 3.316553669961038592e-02 1.074993520398772340e+01 1.735091366757388087e+01
3.036872898470133197e+00 3.351428891455011244e-02 1.080606874872204415e+01 1.739294884803471675e+01
3.054326190990076295e+00 3.386514870551703832e-02 1.086238361782393191e+01 1.743470546700222457e+01
3.071779483510019837e+00 3.421799281970258622e-02 1.091886744266237841e+01 1.747908980965021186e+01
3.089232776029963379e+00 3.457273040862361702e-02 1.097550775380838139e+01 1.752439531575722143e+01
3.106686068549906921e+00 3.492927439337372569e-02 1.103229209035901626e+01 1.757038160166741747e+01
3.124139361069850018e+00 3.528754016469702603e-02 1.108920800081788016e+01 1.761687607786291920e+01
3.141592653589793116e+00 3.564744040461755026e-02 1.114624304309508496e+01 1.766396275076976963e+01
3.159045946109736214e+00 3.600885574920599519e-02 1.120338478450726427e+01 1.771316370162589493e+01
3.176499238629679756e+00 3.637169897723355888e-02 1.126062080177757174e+01 1.776285284938429854e+01
3.193952531149622853e+00 3.673589433567472917e-02 1.131793868103567569e+01 1.781242478066969070e+01
3.211405823669565951e+00 3.710135098926497371e-02 1.137532601781776798e+01 1.786257436490720352e+01
3.228859116189509493e+00 3.746797331485554605e-02 1.143277033833395251e+01 1.791346783492456396e+01
3.246312408709452590e+00 3.783566627382081715e-02 1.149025888915381088e+01 1.796494373842028480e+01
3.263765701229396576e+00 3.820433544870496800e-02 1.154777897693758781e+01 1.801694596977986507e+01
3.281218993749339674e+00 3.857388704322198270e-02 1.160531807305215324e+01 1.806945287080094431e+01
3.298672286269282772e+00 3.894422782080683709e-02 1.166286381357099877e+01 1.812244763050992802e+01
3.316125578789226314e+00 3.931526480783763267e-02 1.172040399927423593e+01 1.817592979158192179e+01
3.333578871309169411e+00 3.968690502825655830e-02 1.177792659564859612e+01 1.822991378394513617e+01
3.351032163829112509e+00 4.005905545258731104e-02 1.183541973288743598e+01 1.828441851721259681e+01
3.368485456349056051e+00 4.043162299793509606e-02 1.189287167525489686e+01 1.833945512974132797e+01
3.385938748868999149e+00 4.080451452798664058e-02 1.195027039911191657e+01 1.839490080561808938e+01
3.403392041388942246e+00 4.117763685301017995e-02 1.200760328575801239e+01 1.845053249038976872e+01
3.420845333908885788e+00 4.155089672985547156e-02 1.206485711457763266e+01 1.850612152073102834e+01
3.438298626428828886e+00 4.192420095870699054e-02 1.212201844156182240e+01 1.856155398984504146e+01
