# angles(rad), pulling distance(m),                                     elastic band force(n), cable force(n)
0.000000000000000000e+00 3.108742629266353168e-04 2.107856411629062399e-02 1.429214052722752037e-02
1.745329251994329547e-02 6.166352905672859786e-04 4.245727581897713182e-02 2.968598929756736948e-02
3.490658503988659095e-02 9.175365490023449332e-04 6.415567478423477021e-02 4.626352959085697214e-02
5.235987755982988295e-02 1.213730516744347286e-03 8.619345959891004660e-02 6.413070899295776617e-02
6.981317007977318190e-02 1.505258625915069761e-03 1.085904877605207708e-01 8.342606204848532214e-02
8.726646259971647390e-02 1.792160142961206565e-03 1.313667756772560202e-01 1.042883124607948131e-01
1.047197551196597659e-01 2.074474977564844374e-03 1.545425183525318547e-01 1.268667883767386484e-01
1.221730476396030718e-01 2.352242752620812508e-03 1.781387964275929214e-01 1.513283020543050028e-01
1.396263401595463638e-01 2.625503141999007122e-03 2.021784623387434254e-01 1.778634181160746175e-01
1.570796326794896558e-01 2.894291238921076290e-03 2.266861898865479563e-01 2.066893379657413488e-01
1.745329251994329478e-01 3.158646026689402187e-03 2.516884361963060979e-01 2.380428335806318574e-01
1.919862177193762398e-01 3.418606573913906665e-03 2.772134502397523015e-01 2.721904260453432145e-01
2.094395102393195318e-01 3.674212092325536156e-03 3.032916660069153170e-01 3.094340668253281468e-01
2.268928027592628516e-01 3.925501861457960165e-03 3.299560362608920938e-01 3.501165188208921197e-01
2.443460952792061436e-01 4.172515230460151735e-03 3.572419644912542269e-01 3.946214993689460271e-01
2.617993877991494078e-01 4.415291588971563368e-03 3.851872980360100396e-01 4.433787369915441201e-01
2.792526803190927276e-01 4.653870349874536516e-03 4.138341214977676596e-01 4.969022798227785143e-01
2.967059728390360474e-01 4.888290930525998265e-03 4.432296547481954230e-01 5.557947180882457650e-01
3.141592653589793116e-01 5.118592737795772327e-03 4.734190069287543823e-01 6.205862341497314638e-01
3.316125578789225758e-01 5.344815156176973420e-03 5.044422144965315935e-01 6.917712063313147253e-01
3.490658503988658956e-01 5.566997539893419646e-03 5.363364830059437205e-01 7.699107154335160796e-01
3.665191429188092154e-01 5.785179209431905514e-03 5.691357727654452470e-01 8.555828343837522665e-01
3.839724354387524796e-01 5.999399452488222116e-03 6.028720111271858029e-01 9.494263277285994729e-01
4.014257279586957439e-01 6.209697531141413970e-03 6.375801563060864430e-01 1.052278973254515915e+00
4.188790204786390636e-01 6.416112689494885522e-03 6.732961279151943312e-01 1.165002879680079317e+00
4.363323129985823834e-01 6.618684184513193465e-03 7.100538375973577399e-01 1.288431663040789266e+00
4.537856055185257032e-01 6.817451255497763117e-03 7.478845627302307397e-01 1.423425680301070972e+00
4.712388980384689674e-01 7.012453343991291270e-03 7.868250601044469716e-01 1.571232360825797869e+00
4.886921905584122872e-01 7.203729436982732846e-03 8.269116903098880922e-01 1.732997711506567784e+00
5.061454830783556069e-01 7.391320503244648912e-03 8.681741082132432563e-01 1.909630537306682196e+00
5.235987755982988157e-01 7.575261535014433598e-03 9.106461971838059055e-01 2.102687254462189959e+00
5.410520681182421354e-01 7.755607391582227880e-03 9.543665645339588499e-01 2.313624364995772620e+00
5.585053606381854552e-01 7.932500359384711541e-03 9.993706557736650176e-01 2.542541330695623714e+00
5.759586531581287749e-01 8.106118701683030087e-03 1.045684951736183033e+00 2.789461165056291492e+00
5.934119456780720947e-01 8.276632359226836558e-03 1.093347793008231594e+00 3.056181133168641484e+00
6.108652381980153034e-01 8.444200505867915929e-03 1.142396768970059817e+00 3.343916656194979797e+00
6.283185307179586232e-01 8.608972568945973125e-03 1.192859277411475238e+00 3.653208573790885261e+00
6.457718232379019430e-01 8.771088880151265907e-03 1.244773939036598165e+00 3.986151508408284361e+00
6.632251157578451517e-01 8.930681540639043292e-03 1.298177172961362036e+00 4.343987939768318540e+00
6.806784082777884715e-01 9.087875058467606224e-03 1.353096440473679163e+00 4.727361942836741271e+00
6.981317007977317912e-01 9.242786988841854984e-03 1.409567728708984058e+00 5.138410276264981924e+00
7.155849933176750000e-01 9.395528483426623598e-03 1.467629646902760765e+00 5.578928812297140105e+00
7.330382858376184307e-01 9.546204775600022549e-03 1.527315104409057600e+00 6.049956462827341674e+00
7.504915783575616395e-01 9.694915664085443016e-03 1.588660297175795932e+00 6.553432177272423331e+00
7.679448708775049592e-01 9.841755920841785410e-03 1.651703908967743217e+00 7.091337371126368971e+00
7.853981633974482790e-01 9.986815649603448738e-03 1.716463092191068629e+00 7.662826122190710798e+00
8.028514559173914877e-01 1.013018066919055792e-02 1.782927771210757850e+00 8.265734721768087212e+00
8.203047484373349185e-01 1.027193279668883567e-02 1.851068595895239977e+00 8.898162087435395051e+00
8.377580409572781273e-01 1.041215015444504031e-02 1.920839907787861067e+00 9.557983579684847797e+00
8.552113334772214470e-01 1.055090744102085351e-02 1.992179745162132809e+00 1.024247320968860286e+01
8.726646259971647668e-01 1.068827615341820352e-02 2.065015554767426487e+00 1.094915116798539856e+01
8.901179185171079755e-01 1.082432485023315620e-02 2.139284165097524504e+00 1.167829356418474518e+01
9.075712110370514063e-01 1.095911931552783977e-02 2.214926003279422684e+00 1.242937341371298743e+01
9.250245035569946150e-01 1.109272280102721435e-02 2.291882221359105465e+00 1.320134631073554843e+01
9.424777960769379348e-01 1.122519615531598902e-02 2.370094696301545678e+00 1.399307604468214983e+01
9.599310885968812546e-01 1.135659803988235683e-02 2.449505843985039455e+00 1.480329380131763628e+01
9.773843811168245743e-01 1.148698503462224942e-02 2.530056823659879495e+00 1.563028246684991629e+01
9.948376736367677831e-01 1.161641183105932909e-02 2.611687105890012628e+00 1.647207235437101858e+01
1.012290966156711214e+00 1.174493131805185928e-02 2.694339407209330517e+00 1.732759426234882483e+01
1.029744258676654312e+00 1.187259475652464001e-02 2.777955908908823268e+00 1.819494741463631371e+01
1.047197551196597631e+00 1.199945185003951920e-02 2.862469077966298681e+00 1.906998863091468976e+01
1.064650843716540951e+00 1.212555090048303766e-02 2.947820967979263518e+00 1.995273478681546919e+01
1.082104136236484271e+00 1.225093887313235402e-02 3.033954690039050384e+00 2.084137772485442497e+01
1.099557428756427591e+00 1.237566152649031623e-02 3.120811816018354001e+00 2.173340109143063970e+01
1.117010721276370910e+00 1.249976348517191360e-02 3.208334397293789664e+00 2.262669429467755222e+01
1.134464013796314230e+00 1.262328833518534289e-02 3.296466588100927630e+00 2.351954463415926355e+01
1.151917306316257550e+00 1.274627871537721731e-02 3.385133885307804125e+00 2.440440234637830486e+01
1.169370598836200648e+00 1.286877637559896009e-02 3.474282395699770376e+00 2.528432785548775641e+01
1.186823891356144189e+00 1.299082228603562657e-02 3.563862462281174093e+00 2.615827400654966084e+01
1.204277183876087287e+00 1.311245667125850861e-02 3.653804091117980768e+00 2.701777879697105078e+01
1.221730476396030607e+00 1.323371911821937495e-02 3.744049731862549635e+00 2.786387504950400640e+01
1.239183768915973927e+00 1.335464861527166890e-02 3.834546301535964652e+00 2.869550399211734515e+01
1.256637061435917246e+00 1.347528363061789754e-02 3.925224038724992592e+00 2.950473647887561413e+01
1.274090353955860566e+00 1.359566218015032663e-02 4.016032753467965399e+00 3.029532870470936956e+01
1.291543646475803886e+00 1.371582186732167065e-02 4.106907588301744738e+00 3.105988019362292007e+01
1.308996938995747206e+00 1.383579997592666172e-02 4.197787434380276572e+00 3.179699032953475779e+01
1.326450231515690303e+00 1.395563349391275992e-02 4.288624733266467537e+00 3.250902529220798698e+01
1.343903524035633845e+00 1.407535919842441488e-02 4.379341381596422167e+00 3.318244596275717839e+01
1.361356816555576943e+00 1.419501370033735520e-02 4.469889893278806703e+00 3.382587957409405277e+01
1.378810109075520263e+00 1.431463349375948838e-02 4.560213827049286905e+00 3.443380396420356249e+01
1.396263401595463582e+00 1.443425503492793555e-02 4.650239694255531298e+00 3.499719675093796667e+01
1.413716694115406902e+00 1.455391476490423136e-02 4.739918433126648623e+00 3.552322134764703065e+01
1.431169986635350000e+00 1.467364919807626240e-02 4.829195300262485446e+00 3.600763922063225664e+01
1.448623279155293542e+00 1.479349495545674749e-02 4.917994763393047641e+00 3.643977928077521966e+01
1.466076571675236861e+00 1.491348882613458514e-02 5.006267663132665469e+00 3.682836139888070903e+01
1.483529864195180181e+00 1.503366783722738347e-02 5.093960867412890003e+00 3.717003051361297850e+01
1.500983156715123279e+00 1.515406928330043264e-02 5.180996933439169894e+00 3.745250625205755313e+01
1.518436449235066599e+00 1.527473082073146741e-02 5.267330859085504358e+00 3.768801230490262100e+01
1.535889741755009918e+00 1.539569049546922995e-02 5.352900035984598404e+00 3.786743401016560284e+01
1.553343034274953460e+00 1.551698682513861713e-02 5.437637276530539410e+00 3.798716574185320383e+01
1.570796326794896558e+00 1.563865885871061276e-02 5.521500110610677581e+00 3.805711419918045380e+01
1.588249619314839878e+00 1.576074622761907199e-02 5.604405994420207371e+00 3.805784630703448101e+01
1.605702911834782975e+00 1.588328924272888396e-02 5.686319621251658241e+00 3.801008675053156338e+01
1.623156204354726295e+00 1.600632892688098538e-02 5.767158617238974827e+00 3.789113370454257534e+01
1.640609496874669837e+00 1.612990712735401858e-02 5.846878031915860419e+00 3.771779266952447784e+01
1.658062789394613157e+00 1.625406655979461795e-02 5.925421167482525675e+00 3.748415637046580429e+01
1.675516081914556255e+00 1.637885090951803416e-02 6.002756900596976308e+00 3.720239009494736848e+01
1.692969374434499574e+00 1.650430490885446133e-02 6.078908200925335237e+00 3.689932298099147800e+01
1.710422666954442894e+00 1.663047441833102186e-02 6.153897258976025242e+00 3.657579083138737275e+01
1.727875959474386436e+00 1.675740654109378683e-02 6.227744887133904506e+00 3.623229318765580587e+01
1.745329251994329534e+00 1.688514969042714461e-02 6.300468232642350230e+00 3.586815657344953223e+01
1.762782544514272853e+00 1.701375373441295358e-02 6.372089427523823346e+00 3.548696017220258625e+01
1.780235837034215951e+00 1.714327006277976267e-02 6.442629854561350733e+00 3.508946454213642596e+01
1.797689129554159271e+00 1.727375175339207480e-02 6.512110833152254585e+00 3.467672983516249019e+01
1.815142422074102813e+00 1.740525365025787086e-02 6.580553553543430745e+00 3.424977111501137017e+01
1.832595714594046132e+00 1.753783254816235898e-02 6.647979319770993101e+00 3.380968665341213608e+01
1.850049007113989230e+00 1.767154728867739721e-02 6.714409497451728548e+00 3.335753516918953920e+01
1.867502299633932550e+00 1.780645896540774750e-02 6.779864504071960951e+00 3.289382259219091509e+01
1.884955592153875870e+00 1.794263104162729591e-02 6.844363317712330641e+00 3.241878411285678396e+01
1.902408884673818967e+00 1.808012958062658188e-02 6.907927150415192230e+00 3.193447209754219074e+01
1.919862177193762509e+00 1.821902339194421405e-02 6.970578951112147870e+00 3.144267689427567802e+01
1.937315469713705829e+00 1.835938428602604255e-02 7.032340018428004491e+00 3.094343535692496516e+01
1.954768762233649149e+00 1.850128726699859505e-02 7.093229274079525304e+00 3.043639025087285432e+01
1.972222054753592246e+00 1.864481080089638171e-02 7.153268518781399798e+00 2.992379210249854893e+01
1.989675347273535566e+00 1.879003708294840758e-02 7.212479143093690759e+00 2.940620574097985696e+01
2.007128639793478886e+00 1.893705231060411123e-02 7.270881114615447949e+00 2.888366045919453029e+01
2.024581932313422428e+00 1.908594703780683299e-02 7.328496208774951448e+00 2.835775363228673029e+01
2.042035224833365525e+00 1.923681648964766996e-02 7.385345984262896124e+00 2.782904398360797060e+01
2.059488517353308623e+00 1.938976096164468296e-02 7.441450421865350329e+00 2.729738351533628560e+01
2.076941809873252165e+00 1.954488624813053091e-02 7.496831358016697422e+00 2.676427216871653769e+01
2.094395102393195263e+00 1.970230408044253839e-02 7.551514097521833335e+00 2.623193777981161290e+01
2.111848394913138804e+00 1.986213264846916488e-02 7.605528706637774583e+00 2.570314339177902596e+01
2.129301687433081902e+00 2.002449717020222258e-02 7.658908673746081419e+00 2.517990314178639721e+01
2.146754979953025444e+00 2.018953050096996410e-02 7.711685540298401698e+00 2.466159997864749442e+01
2.164208272472968542e+00 2.035737381894160009e-02 7.763888165199277047e+00 2.414724318836042372e+01
2.181661564992911639e+00 2.052817739938423564e-02 7.815544203658729039e+00 2.363650989748070330e+01
2.199114857512855181e+00 2.070210146927686790e-02 7.866680448926604896e+00 2.312920236564398380e+01
2.216568150032798723e+00 2.087931715790145373e-02 7.917322630276643736e+00 2.262499960139597732e+01
2.234021442552741821e+00 2.106000756157377918e-02 7.967495338610514288e+00 2.212352242571274630e+01
2.251474735072684918e+00 2.124436894963595626e-02 8.017222175284681285e+00 2.162443567394086585e+01
2.268928027592628460e+00 2.143261209505940498e-02 8.066525878649073888e+00 2.112744122541423408e+01
2.286381320112572002e+00 2.162496387313130042e-02 8.115428358997716529e+00 2.063222808880820480e+01
2.303834612632515100e+00 2.182166870439298037e-02 8.163950768559830706e+00 2.013852737099339407e+01
2.321287905152458197e+00 2.202299170470213216e-02 8.212113519669538064e+00 1.964594104623595072e+01
2.338741197672401295e+00 2.222921649445284975e-02 8.259936364718564406e+00 1.915451858926609319e+01
2.356194490192344837e+00 2.244065763605678984e-02 8.307438439869310187e+00 1.866337658259697818e+01
2.373647782712288379e+00 2.265738658879516698e-02 8.354638293651719394e+00 1.819497122478611573e+01
2.391101075232231477e+00 2.287930573797049283e-02 8.401553955845335153e+00 1.776162484213896775e+01
2.408554367752174574e+00 2.310632307517822628e-02 8.448202950045773818e+00 1.735991511785667285e+01
2.426007660272118116e+00 2.333834736859828618e-02 8.494602341209786189e+00 1.698720297787867395e+01
2.443460952792061214e+00 2.357528766534740944e-02 8.540768781231919959e+00 1.664119168801201454e+01
2.460914245312004311e+00 2.381705301851043399e-02 8.586718517636320769e+00 1.631985093406311194e+01
2.478367537831947853e+00 2.406355220781621063e-02 8.632467447224435375e+00 1.602139733307021174e+01
2.495820830351891395e+00 2.431469358546897025e-02 8.678031141331310039e+00 1.574424573398085414e+01
2.513274122871834493e+00 2.457038506571723735e-02 8.723424857941843413e+00 1.548697185726295800e+01
2.530727415391777591e+00 2.483053424511299720e-02 8.768663593292735925e+00 1.524829917201149598e+01
2.548180707911721132e+00 2.509504863614193601e-02 8.813762095789828166e+00 1.502706413588923873e+01
2.565634000431664674e+00 2.536383601577664806e-02 8.858734881879309242e+00 1.482219847552454972e+01
2.583087292951607772e+00 2.563680489210395930e-02 8.903596282519192329e+00 1.463272316390127692e+01
2.600540585471550870e+00 2.591386499363298318e-02 8.948360451710033914e+00 1.445772664596485946e+01
2.617993877991494411e+00 2.619492729130428257e-02 8.993041384482639344e+00 1.429638485312739427e+01
2.635447170511437509e+00 2.647989775771580553e-02 9.037652958747706577e+00 1.414827056389915860e+01
2.652900463031380607e+00 2.676866914765801964e-02 9.082208941361965771e+00 1.401339460156956740e+01
2.670353755551324149e+00 2.706115669747063621e-02 9.126723007249358588e+00 1.389008009198855831e+01
2.687807048071267690e+00 2.735728222545737512e-02 9.171208778702139242e+00 1.377754563913674879e+01
2.705260340591210788e+00 2.765693397004099358e-02 9.215679830376089399e+00 1.367690932407912285e+01
2.722713633111153886e+00 2.796002872120161020e-02 9.260149708280550840e+00 1.358643544064770481e+01
2.740166925631096984e+00 2.826647462968710084e-02 9.304631966323578141e+00 1.350616956078513020e+01
2.757620218151040525e+00 2.857617915409361650e-02 9.349140170695498853e+00 1.343582055239390627e+01
2.775073510670984067e+00 2.888904251185306707e-02 9.393687922462728324e+00 1.337541349506485844e+01
2.792526803190927165e+00 2.920499066665214680e-02 9.438288898808414373e+00 1.332360684895244951e+01
2.809980095710870263e+00 2.952391749534359622e-02 9.482956857606147594e+00 1.328155200784442869e+01
2.827433388230813804e+00 2.984572445951250499e-02 9.527705651267776688e+00 1.324872926098440651e+01
2.844886680750756902e+00 3.017032394188529781e-02 9.572549249991112674e+00 1.322452994034554763e+01
2.862339973270700000e+00 3.049762597005586245e-02 9.617501745255092160e+00 1.320892217110245603e+01
2.879793265790643542e+00 3.082753972101987330e-02 9.662577412566902169e+00 1.320184816640111869e+01
2.897246558310587083e+00 3.115997740228218862e-02 9.707790801647432133e+00 1.320313993770605343e+01
2.914699850830530625e+00 3.149485605913394937e-02 9.753156738746726617e+00 1.321257972332955966e+01
2.932153143350473723e+00 3.183205522584194036e-02 9.798690197257807100e+00 1.323159419151646610e+01
2.949606435870416821e+00 3.217148905882483839e-02 9.844406154812539000e+00 1.325873882311624286e+01
2.967059728390360362e+00 3.251309413727913877e-02 9.890319208430552678e+00 1.329297439518829194e+01
2.984513020910303460e+00 3.285673624648181163e-02 9.936438306272195931e+00 1.333537299918494945e+01
3.001966313430246558e+00 3.320234974909923309e-02 9.982762878003118345e+00 1.338047302876200106e+01
3.019419605950190100e+00 3.354985583751711464e-02 1.002928338390840679e+01 1.342616294900320817e+01
3.036872898470133197e+00 3.389912713110686260e-02 1.007598759399768262e+01 1.347351042252491915e+01
3.054326190990076295e+00 3.425008401170001604e-02 1.012286415491588620e+01 1.352089343347875960e+01
3.071779483510019837e+00 3.460263675881724427e-02 1.016990263098807645e+01 1.356894040610519880e+01
3.089232776029963379e+00 3.495670157199325112e-02 1.021709332940368498e+01 1.361761327444664182e+01
3.106686068549906921e+00 3.531219196987517295e-02 1.026442665041199653e+01 1.366701898293171169e+01
3.124139361069850018e+00 3.566898670888708073e-02 1.031189293637260818e+01 1.371845504977428298e+01
3.141592653589793116e+00 3.602699620845354472e-02 1.035948247175543280e+01 1.377066693018922905e+01
3.159045946109736214e+00 3.638614590208932159e-02 1.040718548314069025e+01 1.382304082080665353e+01
3.176499238629679756e+00 3.674634738756255015e-02 1.045499213921891801e+01 1.387607307736499251e+01
3.193952531149622853e+00 3.710750658370068344e-02 1.050289255079095874e+01 1.392994782520755059e+01
3.211405823669565951e+00 3.746952940154994749e-02 1.055087677076797448e+01 1.398463209934223350e+01
3.228859116189509493e+00 3.783232182964559043e-02 1.059893479417143425e+01 1.404009061224837929e+01
3.246312408709452590e+00 3.819578993401190337e-02 1.064705657357554713e+01 1.409629350091054079e+01
3.263765701229396576e+00 3.855983979330889627e-02 1.069523207921628760e+01 1.415323204234427834e+01
3.281218993749339674e+00 3.892437738521218465e-02 1.074345130779117063e+01 1.421090570080208515e+01
3.298672286269282772e+00 3.928930910473223820e-02 1.079170428079859079e+01 1.426929443267557218e+01
3.316125578789226314e+00 3.965454191000752221e-02 1.083998104453781686e+01 1.432837347210360512e+01
3.333578871309169411e+00 4.001998332230450456e-02 1.088827167010899899e+01 1.438811893358268357e+01
3.351032163829112509e+00 4.038554142601764180e-02 1.093656625341316335e+01 1.444850776448533836e+01
3.368485456349056051e+00 4.075112486866937916e-02 1.098485491515221391e+01 1.450951770142539132e+01
3.385938748868999149e+00 4.111664286091016446e-02 1.103312780091473755e+01 1.457112725619284532e+01
3.403392041388942246e+00 4.148200503747842549e-02 1.108137508864951926e+01 1.463332349891571482e+01
3.420845333908885788e+00 4.184712012688877880e-02 1.112958700183163785e+01 1.469615192162281048e+01
3.438298626428828886e+00 4.221189521196434813e-02 1.117775381080250341e+01 1.475969041078450061e+01
