# angles(rad), pulling distance(m),                                     elastic band force(n), cable force(n)
0.000000000000000000e+00 3.040162006811391302e-04 2.112389370045743286e-02 1.467747061072683865e-02
1.745329251994329547e-02 6.030542483505002159e-04 4.254187410093256128e-02 3.046973563379808472e-02
3.490658503988659095e-02 8.973446350097852124e-04 6.427288745687592675e-02 4.746043496716268600e-02
5.235987755982988295e-02 1.187126600974516399e-03 8.633603317404596467e-02 6.573371376717203340e-02
6.981317007977318190e-02 1.472610127956685460e-03 1.087505638085089488e-01 8.538471097679807553e-02
8.726646259971647390e-02 1.753920829592114580e-03 1.315358850666390467e-01 1.065401131486277964e-01
1.047197551196597659e-01 2.031117043991201125e-03 1.547115722075731725e-01 1.293505036617328963e-01
1.221730476396030718e-01 2.304223071165714589e-03 1.782980253290841477e-01 1.539848116715189785e-01
1.396263401595463638e-01 2.573271662430397233e-03 2.023173309553438493e-01 1.806187418734660211e-01
1.570796326794896558e-01 2.838296450015962997e-03 2.267933207948495400e-01 2.094517673615832742e-01
1.745329251994329478e-01 3.099328189334039051e-03 2.517515729986090633e-01 2.407093967962286862e-01
1.919862177193762398e-01 3.356399881564888291e-03 2.772194146504784462e-01 2.746385684816008421e-01
2.094395102393195318e-01 3.609545528683009291e-03 3.032261163025534167e-01 3.115167584184539429e-01
2.268928027592628516e-01 3.858797554308350704e-03 3.298032604538667645e-01 3.516612863090974317e-01
2.443460952792061436e-01 4.104185039656620647e-03 3.569848801652879544e-01 3.954328494628971957e-01
2.617993877991494078e-01 4.345743620126531724e-03 3.848078099293715248e-01 4.432250200969096721e-01
2.792526803190927276e-01 4.583509604930780315e-03 4.133118969397807652e-01 4.954904833215785231e-01
2.967059728390360474e-01 4.817506075573530985e-03 4.425405148496215357e-01 5.527796031552917322e-01
3.141592653589793116e-01 5.047770724483843612e-03 4.725408274045793666e-01 6.156556199226842496e-01
3.316125578789225758e-01 5.274343922658899717e-03 5.033641718491248529e-01 6.847838744793387500e-01
3.490658503988658956e-01 5.497242533699502401e-03 5.350671131306965478e-01 7.610276793601292722e-01
3.665191429188092154e-01 5.716506509113211329e-03 5.677104593385708942e-01 8.451898692000838764e-01
3.839724354387524796e-01 5.932179114987616748e-03 6.013490071992486641e-01 9.379265984027062020e-01
4.014257279586957439e-01 6.144272900158216297e-03 6.360272933176537302e-01 1.039933180458029627e+00
4.188790204786390636e-01 6.352828690431458133e-03 6.717820591788347118e-01 1.151701911714458682e+00
4.363323129985823834e-01 6.557891481135849632e-03 7.086516073415394246e-01 1.274129961740420702e+00
4.537856055185257032e-01 6.759473363615917975e-03 7.466771698841223603e-01 1.408500559337460878e+00
4.712388980384689674e-01 6.957612748267959918e-03 7.859008417986033113e-01 1.555769279800532034e+00
4.886921905584122872e-01 7.152355275568743169e-03 8.263618511721245730e-01 1.716904626309693649e+00
5.061454830783556069e-01 7.343718159105414554e-03 8.680949579148857786e-01 1.893172744471745661e+00
5.235987755982988157e-01 7.531733924944182534e-03 9.111404146035577689e-01 2.086019493054078300e+00
5.410520681182421354e-01 7.716445665448863275e-03 9.555420256094928622e-01 2.296963106135677890e+00
5.585053606381854552e-01 7.897881660889579866e-03 1.001340557747805615e+00 2.527609122104624184e+00
5.759586531581287749e-01 8.076071518759494333e-03 1.048571734410365996e+00 2.779354415752351759e+00
5.934119456780720947e-01 8.251048220681966167e-03 1.097272771005168179e+00 3.054024952355100186e+00
6.108652381980153034e-01 8.422839999892158327e-03 1.147486019042589067e+00 3.354002173943353871e+00
6.283185307179586232e-01 8.591520812016117600e-03 1.199254669041852850e+00 3.680548750025394167e+00
6.457718232379019430e-01 8.757232975288275698e-03 1.252616850865201803e+00 4.033642843771297670e+00
6.632251157578451517e-01 8.920127110778457505e-03 1.307606267390670318e+00 4.414186273341470290e+00
6.806784082777884715e-01 9.080345869287036534e-03 1.364267434606122764e+00 4.824715030773044866e+00
6.981317007977317912e-01 9.238023099820916878e-03 1.422646112557647280e+00 5.267228436394045588e+00
7.155849933176750000e-01 9.393284597886880638e-03 1.482770085430682006e+00 5.741927619138785133e+00
7.330382858376184307e-01 9.546249144902952191e-03 1.544639060504814809e+00 6.247541498806476135e+00
7.504915783575616395e-01 9.697028999116678177e-03 1.608225281794756212e+00 6.782137387354636893e+00
7.679448708775049592e-01 9.845730361762550925e-03 1.673477289302307769e+00 7.343426496051854713e+00
7.853981633974482790e-01 9.992453815761278071e-03 1.740334271804820920e+00 7.930122607363638387e+00
8.028514559173914877e-01 1.013729485471894995e-02 1.808735985820553616e+00 8.541822298597095298e+00
8.203047484373349185e-01 1.028034415382163801e-02 1.878622957166240948e+00 9.178043485734246332e+00
8.377580409572781273e-01 1.042168807521061911e-02 1.949936315897688344e+00 9.838166836789723035e+00
8.552113334772214470e-01 1.056140881665438430e-02 2.022617337833847895e+00 1.052140817322572097e+01
8.726646259971647668e-01 1.069958487543279553e-02 2.096608086544254235e+00 1.122695229891303725e+01
8.901179185171079755e-01 1.083629121627325068e-02 2.171851615110734102e+00 1.195392825519770241e+01
9.075712110370514063e-01 1.097159953591130867e-02 2.248291966127406560e+00 1.270137915676288287e+01
9.250245035569946150e-01 1.110557857674620251e-02 2.325874170692288967e+00 1.346825925744569652e+01
9.424777960769379348e-01 1.123829419647408463e-02 2.404542503156393618e+00 1.425313383987742455e+01
9.599310885968812546e-01 1.136980970178902255e-02 2.484235153701338739e+00 1.505337971376847328e+01
9.773843811168245743e-01 1.150018598166351567e-02 2.564888197592911645e+00 1.586684637547402232e+01
9.948376736367677831e-01 1.162948160887665623e-02 2.646452246234040739e+00 1.669471461570971726e+01
1.012290966156711214e+00 1.175775313073976897e-02 2.728877195756660434e+00 1.753526907973424898e+01
1.029744258676654312e+00 1.188505512196311696e-02 2.812098379538396031e+00 1.838354245734391057e+01
1.047197551196597631e+00 1.201144030417644962e-02 2.896055926337903763e+00 1.923846978826094656e+01
1.064650843716540951e+00 1.213695977909098715e-02 2.980694531877582154e+00 2.009901880880506653e+01
1.082104136236484271e+00 1.226166305635969719e-02 3.065958724234615573e+00 2.096308133575086430e+01
1.099557428756427591e+00 1.238559815828721260e-02 3.151792482139934570e+00 2.182837538940560762e+01
1.117010721276370910e+00 1.250881181933685173e-02 3.238141541179806460e+00 2.269313911597422617e+01
1.134464013796314230e+00 1.263134950867047211e-02 3.324940412269054679e+00 2.355202516004918678e+01
1.151917306316257550e+00 1.275325550077636635e-02 3.412130423727777195e+00 2.440435335492367130e+01
1.169370598836200648e+00 1.287457305922277626e-02 3.499658975073605127e+00 2.524944321459709329e+01
1.186823891356144189e+00 1.299534446615961680e-02 3.587478031971920611e+00 2.608638463373672778e+01
1.204277183876087287e+00 1.311561105542090148e-02 3.675513345231455009e+00 2.690480961708055219e+01
1.221730476396030607e+00 1.323541337747463631e-02 3.763716812703606251e+00 2.771005334227076133e+01
1.239183768915973927e+00 1.335479125070071493e-02 3.852034236857814431e+00 2.849788929551694494e+01
1.256637061435917246e+00 1.347378377009074771e-02 3.940397983126002313e+00 2.926136276141331649e+01
1.274090353955860566e+00 1.359242942928563617e-02 4.028765135204097625e+00 3.000619692328721655e+01
1.291543646475803886e+00 1.371076621063917374e-02 4.117062352130220759e+00 3.071953989676011076e+01
1.308996938995747206e+00 1.382883158774540419e-02 4.205247338450801564e+00 3.140968911506343275e+01
1.326450231515690303e+00 1.394666258735015145e-02 4.293250492838041055e+00 3.206453201718381507e+01
1.343903524035633845e+00 1.406429591575853594e-02 4.381022400658050486e+00 3.268892409241297514e+01
1.361356816555576943e+00 1.418176797425764815e-02 4.468504339716748319e+00 3.327714090696585458e+01
1.378810109075520263e+00 1.429911487534313470e-02 4.555633719238263879e+00 3.382531073363067264e+01
1.396263401595463582e+00 1.441637256407873706e-02 4.642366846992088902e+00 3.433864347507234527e+01
1.413716694115406902e+00 1.453357687305661256e-02 4.728627035877041251e+00 3.480181444167240556e+01
1.431169986635350000e+00 1.465076352383248501e-02 4.814375522119307860e+00 3.522802388243911054e+01
1.448623279155293542e+00 1.476796819677475558e-02 4.899540823499308750e+00 3.560189712422722863e+01
1.466076571675236861e+00 1.488522663935222708e-02 4.984073866098641226e+00 3.593079689445588087e+01
1.483529864195180181e+00 1.500257467545170788e-02 5.067915743268387452e+00 3.620883513495887485e+01
1.500983156715123279e+00 1.512004822623558287e-02 5.151006153437073465e+00 3.643366623504331869e+01
1.518436449235066599e+00 1.523768343467095908e-02 5.233293742418839933e+00 3.660767301089017423e+01
1.535889741755009918e+00 1.535551671154937806e-02 5.314714823524774090e+00 3.672390670655936873e+01
1.553343034274953460e+00 1.547358473814142675e-02 5.395215627538687997e+00 3.678550479597346623e+01
1.570796326794896558e+00 1.559192455307082878e-02 5.474742197738311056e+00 3.679129209159365388e+01
1.588249619314839878e+00 1.571057365794507887e-02 5.553227190356575527e+00 3.673394717175630575e+01
1.605702911834782975e+00 1.582957002373360650e-02 5.630641488891425794e+00 3.663071206211440511e+01
1.623156204354726295e+00 1.594895213055489563e-02 5.706982687044986235e+00 3.649440504705063404e+01
1.640609496874669837e+00 1.606875911333249460e-02 5.782268256429580866e+00 3.633522420207049919e+01
1.658062789394613157e+00 1.618903079511745460e-02 5.856518727322995055e+00 3.615558266469744098e+01
1.675516081914556255e+00 1.630980770121361403e-02 5.929753477611174439e+00 3.595588173599681170e+01
1.692969374434499574e+00 1.643113120337949193e-02 6.001989811017026000e+00 3.573600574885893622e+01
1.710422666954442894e+00 1.655304360416713638e-02 6.073243311231941277e+00 3.549596602037811977e+01
1.727875959474386436e+00 1.667558814264166744e-02 6.143533074426292373e+00 3.523841130364513674e+01
1.745329251994329534e+00 1.679880912099795259e-02 6.212877625206926879e+00 3.496394962303519804e+01
1.762782544514272853e+00 1.692275204305900352e-02 6.281295405112460983e+00 3.467340283755320485e+01
1.780235837034215951e+00 1.704746362327796624e-02 6.348804733386749888e+00 3.436758175488134981e+01
1.797689129554159271e+00 1.717299190468418724e-02 6.415423950437126877e+00 3.404734899869205123e+01
1.815142422074102813e+00 1.729938644182478502e-02 6.481171443705786572e+00 3.371354375815106152e+01
1.832595714594046132e+00 1.742669831850305814e-02 6.546065778631204424e+00 3.336708217378802033e+01
1.850049007113989230e+00 1.755498028102070451e-02 6.610125058366650208e+00 3.300852605384324789e+01
1.867502299633932550e+00 1.768428695320232655e-02 6.673365366275466393e+00 3.263757959515952933e+01
1.884955592153875870e+00 1.781467486165101352e-02 6.735805129875574337e+00 3.225621800133006190e+01
1.902408884673818967e+00 1.794620262312404679e-02 6.797463653320678922e+00 3.186563561499157871e+01
1.919862177193762509e+00 1.807893116927567281e-02 6.858359799072387020e+00 3.146630397539825452e+01
1.937315469713705829e+00 1.821292378578184129e-02 6.918511496172604858e+00 3.105844327496921053e+01
1.954768762233649149e+00 1.834824640354407524e-02 6.977935395783445571e+00 3.064204190747535250e+01
1.972222054753592246e+00 1.848496778228056817e-02 7.036650782887965860e+00 3.021909802657027200e+01
1.989675347273535566e+00 1.862315962868128436e-02 7.094677011752700935e+00 2.979027798873188360e+01
2.007128639793478886e+00 1.876289698648541185e-02 7.152030184282959446e+00 2.935447095513119109e+01
2.024581932313422428e+00 1.890425834034617503e-02 7.208728287619722508e+00 2.891322205223670494e+01
2.042035224833365525e+00 1.904732597415573908e-02 7.264790804518633571e+00 2.846782646783039183e+01
2.059488517353308623e+00 1.919218626889438242e-02 7.320236263731226600e+00 2.801829596712645198e+01
2.076941809873252165e+00 1.933892994875004157e-02 7.375082633037692403e+00 2.756483319453119307e+01
2.094395102393195263e+00 1.948765257648785165e-02 7.429347598364459238e+00 2.710773040780872023e+01
2.111848394913138804e+00 1.963845477195532221e-02 7.483048472343909019e+00 2.664724089392563755e+01
2.129301687433081902e+00 1.979144282708006006e-02 7.536203150607119206e+00 2.618403466009858604e+01
2.146754979953025444e+00 1.994672899246912115e-02 7.588832737845121912e+00 2.572007194654898043e+01
2.164208272472968542e+00 2.010443217907691149e-02 7.640961086019990134e+00 2.525698360637867168e+01
2.181661564992911639e+00 2.026467835665134512e-02 7.692612639265507646e+00 2.479531164789231923e+01
2.199114857512855181e+00 2.042760136849893632e-02 7.743811778263165024e+00 2.433520539000861405e+01
2.216568150032798723e+00 2.059334346998554013e-02 7.794581870062916806e+00 2.387634967424118670e+01
2.234021442552741821e+00 2.076205625438246050e-02 7.844945185112915276e+00 2.341834658944978287e+01
2.251474735072684918e+00 2.093390145093146359e-02 7.894923239879640953e+00 2.296095055233508830e+01
2.268928027592628460e+00 2.110905195801106304e-02 7.944536887127201297e+00 2.250392860604358347e+01
2.286381320112572002e+00 2.128769285641949824e-02 7.993806324894279669e+00 2.204704223698984933e+01
2.303834612632515100e+00 2.147002271954461319e-02 8.042751103263253043e+00 2.159002718912305596e+01
2.321287905152458197e+00 2.165625547697576023e-02 8.091390183824813676e+00 2.113257540911270027e+01
2.338741197672401295e+00 2.184661989789665401e-02 8.139742000718056758e+00 2.067462569281882168e+01
2.356194490192344837e+00 2.204136571288933810e-02 8.187824483539262843e+00 2.021562979864882337e+01
2.373647782712288379e+00 2.224075865566003257e-02 8.235655111673631623e+00 1.975579233726358197e+01
2.391101075232231477e+00 2.244500298391917739e-02 8.283250928301047367e+00 1.930276819056003745e+01
2.408554367752174574e+00 2.265409513369381553e-02 8.330628589569240461e+00 1.887616057767476008e+01
2.426007660272118116e+00 2.286795877369393257e-02 8.377804392976948122e+00 1.848045104960773344e+01
2.443460952792061214e+00 2.308654489484743971e-02 8.424794299646539031e+00 1.811095305419141255e+01
2.460914245312004311e+00 2.330979542062511928e-02 8.471613979745926670e+00 1.776650939905015392e+01
2.478367537831947853e+00 2.353764544905528194e-02 8.518278821841631654e+00 1.744586730522511786e+01
2.495820830351891395e+00 2.377000447298385083e-02 8.564803972517555763e+00 1.714927135576308714e+01
2.513274122871834493e+00 2.400681329176554760e-02 8.611204360335623420e+00 1.687281850210812806e+01
2.530727415391777591e+00 2.424801856320299778e-02 8.657494710489082479e+00 1.661483014910745837e+01
2.548180707911721132e+00 2.449356261736377119e-02 8.703689585994650812e+00 1.637448963031588178e+01
2.565634000431664674e+00 2.474339128284089653e-02 8.749803396263795108e+00 1.615053952824164085e+01
2.583087292951607772e+00 2.499744628762370219e-02 8.795850425376192661e+00 1.594232638525900114e+01
2.600540585471550870e+00 2.525565305241441599e-02 8.841844860599037403e+00 1.575000023802164328e+01
2.617993877991494411e+00 2.551793436984611113e-02 8.887800799784635331e+00 1.557286798191389643e+01
2.635447170511437509e+00 2.578423291628807387e-02 8.933732289146409045e+00 1.540900748736476267e+01
2.652900463031380607e+00 2.605449549221721187e-02 8.979653337696026583e+00 1.525757295331886354e+01
2.670353755551324149e+00 2.632867183560975988e-02 9.025577932539365023e+00 1.511786190777945116e+01
2.687807048071267690e+00 2.660670331394332858e-02 9.071520072360153009e+00 1.498985100713810681e+01
2.705260340591210788e+00 2.688849351750374414e-02 9.117493773810354085e+00 1.487507129187162569e+01
2.722713633111153886e+00 2.717398334754134517e-02 9.163513106975669231e+00 1.477106076174764659e+01
2.740166925631096984e+00 2.746313502463133133e-02 9.209592226312262042e+00 1.467637689355432506e+01
2.757620218151040525e+00 2.775588941385438019e-02 9.255745373171146539e+00 1.459181454563768376e+01
2.775073510670984067e+00 2.805215849686652427e-02 9.301986883648439175e+00 1.451848838112575990e+01
2.792526803190927165e+00 2.835188335813147373e-02 9.348331192078404683e+00 1.445465492060662882e+01
2.809980095710870263e+00 2.865501634239813952e-02 9.394792911627055432e+00 1.439956244067694158e+01
2.827433388230813804e+00 2.896149692461087374e-02 9.441386976936257724e+00 1.435368590847522796e+01
2.844886680750756902e+00 2.927124667984865730e-02 9.488128625135184180e+00 1.431771172576963380e+01
2.862339973270700000e+00 2.958420550335391641e-02 9.535033038189869359e+00 1.429054222226830184e+01
2.879793265790643542e+00 2.990032416953092645e-02 9.582115128072748789e+00 1.427141304827007495e+01
2.897246558310587083e+00 3.021953630207750360e-02 9.629390186182527955e+00 1.426104881984989525e+01
2.914699850830530625e+00 3.054177202736967078e-02 9.676875612334622900e+00 1.426007503841758428e+01
2.932153143350473723e+00 3.086696588450475037e-02 9.724590562841443742e+00 1.426866920220876978e+01
2.949606435870416821e+00 3.119505906771724568e-02 9.772547725428760046e+00 1.428446807616700198e+01
2.967059728390360362e+00 3.152599417708877583e-02 9.820747592067737841e+00 1.430367195344330433e+01
2.984513020910303460e+00 3.185970931069112555e-02 9.869181429615379031e+00 1.432366356689631637e+01
3.001966313430246558e+00 3.219614003562958765e-02 9.917838919712396617e+00 1.434402726171907361e+01
3.019419605950190100e+00 3.253522127784149592e-02 9.966709323249641983e+00 1.436461372467297615e+01
3.036872898470133197e+00 3.287689096483111667e-02 1.001578165492558270e+01 1.438517310958413198e+01
3.054326190990076295e+00 3.322109201086250602e-02 1.006504494135479355e+01 1.440545278946121499e+01
3.071779483510019837e+00 3.356776642244074099e-02 1.011448824187627693e+01 1.442545700120790464e+01
3.089232776029963379e+00 3.391684969123651139e-02 1.016410064485491915e+01 1.444542039633071084e+01
3.106686068549906921e+00 3.426827290491210598e-02 1.021387123245874129e+01 1.446547505021999491e+01
3.124139361069850018e+00 3.462196958140319192e-02 1.026378906115228773e+01 1.448546447153918848e+01
3.141592653589793116e+00 3.497787690402110600e-02 1.031384316148969660e+01 1.450518457086452884e+01
3.159045946109736214e+00 3.533593445157423574e-02 1.036402253811468910e+01 1.452448618508167399e+01
3.176499238629679756e+00 3.569608175998944394e-02 1.041431616976057484e+01 1.454332072036149626e+01
3.193952531149622853e+00 3.605825804601483359e-02 1.046471300925025183e+01 1.456165083640390989e+01
3.211405823669565951e+00 3.642240220764458164e-02 1.051520198349620649e+01 1.457943908147995415e+01
3.228859116189509493e+00 3.678845283117199161e-02 1.056577199350051188e+01 1.459664759659986899e+01
3.246312408709452590e+00 3.715634819699857594e-02 1.061641191019942454e+01 1.461323693398354528e+01
3.263765701229396576e+00 3.752602627980715366e-02 1.066711057283280972e+01 1.462916697945246014e+01
3.281218993749339674e+00 3.789742474856188509e-02 1.071785684475289280e+01 1.464441357736301086e+01
3.298672286269282772e+00 3.827048096650823017e-02 1.076863962841530409e+01 1.465895675452684976e+01
3.316125578789226314e+00 3.864513199117297626e-02 1.081944786537907177e+01 1.467277639112900012e+01
3.333578871309169411e+00 3.902131457436422424e-02 1.087027053630662898e+01 1.468585221765461313e+01
3.351032163829112509e+00 3.939896516217140238e-02 1.092109666096380494e+01 1.469816381079342094e+01
3.368485456349056051e+00 3.977802040431368397e-02 1.097191529821983913e+01 1.470967082246179736e+01
3.385938748868999149e+00 4.015841855819845402e-02 1.102271554648554819e+01 1.472027875543724562e+01
3.403392041388942246e+00 4.054009746492861360e-02 1.107348656747464055e+01 1.472997876031856457e+01
3.420845333908885788e+00 4.092299391596731367e-02 1.112421762164838768e+01 1.473879648854072677e+01
3.438298626428828886e+00 4.130704365313794119e-02 1.117489807110826838e+01 1.474675809140024185e+01
