# angles(rad), pulling distance(m),                                     elastic band force(n), cable force(n)
0.000000000000000000e+00 3.088115225108352532e-04 2.065974498438009899e-02 1.382153940854466412e-02
1.745329251994329547e-02 6.136380269068438410e-04 4.160610191496691423e-02 2.858991093730758881e-02
3.490658503988659095e-02 9.145631044455252183e-04 6.285533638186940886e-02 4.438406367454324902e-02
5.235987755982988295e-02 1.211613188916479738e-03 8.442384060953007918e-02 6.129929120690241068e-02
6.981317007977318190e-02 1.504811239610274109e-03 1.063281341340314712e-01 7.943581665952989534e-02
8.726646259971647390e-02 1.794180848157719875e-03 1.285851831323907013e-01 9.890211815285941677e-02
1.047197551196597659e-01 2.079738516712828587e-03 1.512132285565110645e-01 1.198237757654296298e-01
1.221730476396030718e-01 2.361493449413872969e-03 1.742319186274544074e-01 1.423432234851634004e-01
1.396263401595463638e-01 2.639472177423923122e-03 1.976623171634987741e-01 1.666065205727300380e-01
1.570796326794896558e-01 2.913703526922901705e-03 2.215269473033448511e-01 1.927809739135310785e-01
1.745329251994329478e-01 3.184196542316199141e-03 2.458498058053265600e-01 2.210692956580798951e-01
1.919862177193762398e-01 3.450969726266398929e-03 2.706564580746038118e-01 2.516774939847126191e-01
2.094395102393195318e-01 3.714055457272337577e-03 2.959744166346306438e-01 2.848298912499570013e-01
2.268928027592628516e-01 3.973460372624595081e-03 3.218332406895572095e-01 3.208200251223826682e-01
2.443460952792061436e-01 4.229208430727295770e-03 3.482647606530064333e-01 3.599310603589924162e-01
2.617993877991494078e-01 4.481328053347398248e-03 3.753033799196796583e-01 4.024948591341711013e-01
2.792526803190927276e-01 4.729822974878794724e-03 4.029862291378576433e-01 4.489350104008436593e-01
2.967059728390360474e-01 4.974729224396120392e-03 4.313536472860989845e-01 4.996356485981843232e-01
3.141592653589793116e-01 5.216053164497128601e-03 4.604493996206777129e-01 5.551509596752489673e-01
3.316125578789225758e-01 5.453822894639332765e-03 4.903212491980016297e-01 6.160078741666723534e-01
3.490658503988658956e-01 5.688056493551645228e-03 5.210213092040891780e-01 6.828817697927203056e-01
3.665191429188092154e-01 5.918770770322921183e-03 5.526067278668157501e-01 7.565338001521488831e-01
3.839724354387524796e-01 6.145994018821593699e-03 5.851402789215632838e-01 8.377968039918723964e-01
4.014257279586957439e-01 6.369733564624315003e-03 6.186912219744178376e-01 9.277606192187135559e-01
4.188790204786390636e-01 6.590026077198293461e-03 6.533360446826663726e-01 1.027484373956567110e+00
4.363323129985823834e-01 6.806871332404311470e-03 6.891598241841748740e-01 1.138522010058123701e+00
4.537856055185257032e-01 7.020305541711884673e-03 7.262522427789164237e-01 1.262143134501244823e+00
4.712388980384689674e-01 7.230337355068017398e-03 7.646784353770199605e-01 1.399010957620521856e+00
4.886921905584122872e-01 7.436992639478854326e-03 8.044913703091574053e-01 1.549883549839911723e+00
5.061454830783556069e-01 7.640292882457679763e-03 8.457443314039843063e-01 1.716154269585055125e+00
5.235987755982988157e-01 7.840249946040744530e-03 8.884907299541557890e-01 1.899396708982758364e+00
5.410520681182421354e-01 8.036897712180300288e-03 9.327832981351074082e-01 2.100983328810436035e+00
5.585053606381854552e-01 8.230239651042893512e-03 9.786702417421663247e-01 2.322733828827766356e+00
5.759586531581287749e-01 8.420304027489869739e-03 1.026200983587306048e+00 2.566293323553147765e+00
5.934119456780720947e-01 8.607116684588302438e-03 1.075428050445566885e+00 2.833864116211261219e+00
6.108652381980153034e-01 8.790682418319557129e-03 1.126404494898113562e+00 3.128040021311242480e+00
6.283185307179586232e-01 8.971030409806523415e-03 1.179183542009846430e+00 3.450894196490972288e+00
6.457718232379019430e-01 9.148176120482643878e-03 1.233818334129602068e+00 3.805308519265231393e+00
6.632251157578451517e-01 9.322242898858367627e-03 1.290363825216354510e+00 4.191739334656124250e+00
6.806784082777884715e-01 9.493373533119655455e-03 1.348873372462100262e+00 4.611796751369433345e+00
6.981317007977317912e-01 9.661716831833795302e-03 1.409389509441071109e+00 5.066480772417967238e+00
7.155849933176750000e-01 9.827411761700315107e-03 1.471963264358350010e+00 5.558786175617792757e+00
7.330382858376184307e-01 9.990589271779089925e-03 1.536649328055751829e+00 6.091513240225201464e+00
7.504915783575616395e-01 1.015137296170776256e-02 1.603507641684003060e+00 6.667829110064968923e+00
7.679448708775049592e-01 1.030987963426692813e-02 1.672564647863690190e+00 7.286905046873344283e+00
7.853981633974482790e-01 1.046621984062949366e-02 1.743754225844792005e+00 7.940192118767571472e+00
8.028514559173914877e-01 1.062049836596703350e-02 1.816995791842161312e+00 8.625932670408325009e+00
8.203047484373349185e-01 1.077281467119888848e-02 1.892217494840522152e+00 9.344752827908559212e+00
8.377580409572781273e-01 1.092326329580539483e-02 1.969346185451696041e+00 1.009601071736414291e+01
8.552113334772214470e-01 1.107193422546458479e-02 2.048305806504436610e+00 1.087861969064653778e+01
8.726646259971647668e-01 1.121891322828830369e-02 2.129017393044432271e+00 1.169121903554860076e+01
8.901179185171079755e-01 1.136428216287311763e-02 2.211400455899859896e+00 1.253238480953625533e+01
9.075712110370514063e-01 1.150811926106333309e-02 2.295377315142685948e+00 1.340117258539252809e+01
9.250245035569946150e-01 1.165049938798615181e-02 2.380869680450524939e+00 1.429596846628546736e+01
9.424777960769379348e-01 1.179149428162957515e-02 2.467797452294024918e+00 1.521474489930875862e+01
9.599310885968812546e-01 1.193117277397378988e-02 2.556081233961898125e+00 1.615570971573320236e+01
9.773843811168245743e-01 1.206960099545868574e-02 2.645649074718206428e+00 1.711826334829359197e+01
9.948376736367677831e-01 1.220684256437050766e-02 2.736427652291237855e+00 1.810012898250312929e+01
1.012290966156711214e+00 1.234295876255739853e-02 2.828338802091752147e+00 1.909808492952005921e+01
1.029744258676654312e+00 1.247800869873372069e-02 2.921305409724714863e+00 2.010988390600541109e+01
1.047197551196597631e+00 1.261204946056420154e-02 3.015259879805475940e+00 2.113514876326837566e+01
1.064650843716540951e+00 1.274513625709730417e-02 3.110110700935200256e+00 2.216572653882099075e+01
1.082104136236484271e+00 1.287732255186187051e-02 3.205788133237256865e+00 2.320373512540286853e+01
1.099557428756427591e+00 1.300866018720091451e-02 3.302208753976063615e+00 2.424293821382986280e+01
1.117010721276370910e+00 1.313919950084048091e-02 3.399310144871071415e+00 2.528569623568510494e+01
1.134464013796314230e+00 1.326898943538971920e-02 3.497003928690792129e+00 2.632219108613749725e+01
1.151917306316257550e+00 1.339807764210682907e-02 3.595210976243705225e+00 2.735145713817725976e+01
1.169370598836200648e+00 1.352651057981843832e-02 3.693857177571433503e+00 2.837161442439318648e+01
1.186823891356144189e+00 1.365433360735062752e-02 3.792867323666148316e+00 2.937908411999463709e+01
1.204277183876087287e+00 1.378159107090112627e-02 3.892166009801209636e+00 3.037047574340789069e+01
1.221730476396030607e+00 1.390832638731285924e-02 3.991672496970763984e+00 3.134069644916373676e+01
1.239183768915973927e+00 1.403458212535114123e-02 4.091305656544920843e+00 3.228603433624481056e+01
1.256637061435917246e+00 1.416040008229160763e-02 4.190993475052775530e+00 3.320599118505367642e+01
1.274090353955860566e+00 1.428582135632393106e-02 4.290665298730010235e+00 3.409775880627941547e+01
1.291543646475803886e+00 1.441088641653161424e-02 4.390230485684304185e+00 3.495093820398198403e+01
1.308996938995747206e+00 1.453563517265136877e-02 4.489621765614726812e+00 3.577023671960030526e+01
1.326450231515690303e+00 1.466010704086232255e-02 4.588757825627338249e+00 3.654732412417511966e+01
1.343903524035633845e+00 1.478434100659660813e-02 4.687563300336844208e+00 3.728102169025618196e+01
1.361356816555576943e+00 1.490837568692564286e-02 4.785961222443116725e+00 3.796749734189941705e+01
1.378810109075520263e+00 1.503224939324104142e-02 4.883873904051860393e+00 3.860328432953645006e+01
1.396263401595463582e+00 1.515600019016391346e-02 4.981224912618833933e+00 3.918578960300448699e+01
1.413716694115406902e+00 1.527966595326302190e-02 5.077936871391060869e+00 3.971165576040360889e+01
1.431169986635350000e+00 1.540328442858713252e-02 5.173933017883621588e+00 4.017826871147142498e+01
1.448623279155293542e+00 1.552689329095463359e-02 5.269135475161606408e+00 4.058241742202752533e+01
1.466076571675236861e+00 1.565053020001945169e-02 5.363469943291237385e+00 4.092306158870238164e+01
1.483529864195180181e+00 1.577423285735446781e-02 5.456853702017288477e+00 4.119406328778176629e+01
1.500983156715123279e+00 1.589803906586800819e-02 5.549221429883296253e+00 4.140091042749488537e+01
1.518436449235066599e+00 1.602198678691371322e-02 5.640480185974508842e+00 4.152905766935074183e+01
1.535889741755009918e+00 1.614611419756073127e-02 5.730560078369514976e+00 4.158696556480975204e+01
1.553343034274953460e+00 1.627045975107006825e-02 5.819390618986887809e+00 4.157282670420995885e+01
1.570796326794896558e+00 1.639506223803467722e-02 5.906890470797742765e+00 4.148007423034388808e+01
1.588249619314839878e+00 1.651996084678688040e-02 5.992978046999529518e+00 4.130718183741225857e+01
1.605702911834782975e+00 1.664519522591539902e-02 6.077602092928784394e+00 4.106789862581941719e+01
1.623156204354726295e+00 1.677080555093758696e-02 6.160779504563520526e+00 4.079582572144534680e+01
1.640609496874669837e+00 1.689683259100092927e-02 6.242537079892523266e+00 4.049723736246549066e+01
1.658062789394613157e+00 1.702331777709347599e-02 6.322900304276482863e+00 4.017297769069936919e+01
1.675516081914556255e+00 1.715030327381480632e-02 6.401891320534154772e+00 3.982280767778608777e+01
1.692969374434499574e+00 1.727783205574533881e-02 6.479538650908406083e+00 3.945139839678531501e+01
1.710422666954442894e+00 1.740594798510760807e-02 6.555873759239408294e+00 3.906175727772539119e+01
1.727875959474386436e+00 1.753469589275123003e-02 6.630913937908005096e+00 3.864800413021335856e+01
1.745329251994329534e+00 1.766412166367210476e-02 6.704692885194410756e+00 3.821999122962220952e+01
1.762782544514272853e+00 1.779427232850121915e-02 6.777230312062425099e+00 3.777182765638459472e+01
1.780235837034215951e+00 1.792519615867745400e-02 6.848560046271537693e+00 3.731222705279218843e+01
1.797689129554159271e+00 1.805694276658248096e-02 6.918700165354674247e+00 3.683422755357213418e+01
1.815142422074102813e+00 1.818956321182688476e-02 6.987680157176069606e+00 3.634508383713001933e+01
1.832595714594046132e+00 1.832311011446749807e-02 7.055527910336641284e+00 3.584521292614882526e+01
1.850049007113989230e+00 1.845763777619605778e-02 7.122270160133571615e+00 3.533521121537103937e+01
1.867502299633932550e+00 1.859320230877235802e-02 7.187930723041188408e+00 3.481467965451825108e+01
1.884955592153875870e+00 1.872986177104037087e-02 7.252535045750822640e+00 3.428559623919198174e+01
1.902408884673818967e+00 1.886767631572025539e-02 7.316118255119942404e+00 3.375422237653217650e+01
1.919862177193762509e+00 1.900670834693799632e-02 7.378730247188612701e+00 3.322953679575398667e+01
1.937315469713705829e+00 1.914702268955743511e-02 7.440418768370641978e+00 3.271144077128881378e+01
1.954768762233649149e+00 1.928868677149962046e-02 7.501228918725668215e+00 3.219947160504137429e+01
1.972222054753592246e+00 1.943177082037539707e-02 7.561203373375366077e+00 3.169319378202345661e+01
1.989675347273535566e+00 1.957634807592384049e-02 7.620382572532906629e+00 3.119219106808055741e+01
2.007128639793478886e+00 1.972249501991062137e-02 7.678804893364414852e+00 3.069606458026711238e+01
2.024581932313422428e+00 1.987029162541361152e-02 7.736506806372872802e+00 3.020443136778530402e+01
2.042035224833365525e+00 2.001982162764692416e-02 7.793523017987538992e+00 2.971692309106093433e+01
2.059488517353308623e+00 2.017117281870763404e-02 7.849886601156772947e+00 2.923318496620791862e+01
2.076941809873252165e+00 2.032443736899253867e-02 7.905629114859673123e+00 2.875287458488732284e+01
2.094395102393195263e+00 2.047971217840940938e-02 7.960780713564545863e+00 2.827566074245014960e+01
2.111848394913138804e+00 2.063709926083516846e-02 8.015370248351812776e+00 2.780122270908860216e+01
2.129301687433081902e+00 2.079670616572928607e-02 8.069425359429919453e+00 2.732924897139313813e+01
2.146754979953025444e+00 2.095864644126771772e-02 8.122972562162525278e+00 2.685943673563070888e+01
2.164208272472968542e+00 2.112304014386179665e-02 8.176037325930412436e+00 2.639149081818592180e+01
2.181661564992911639e+00 2.129001440052999752e-02 8.228644147802160802e+00 2.592512316372418724e+01
2.199114857512855181e+00 2.145970403309632735e-02 8.280816620349092716e+00 2.546005146321845203e+01
2.216568150032798723e+00 2.163225224707034100e-02 8.332577494991104672e+00 2.499599904453627985e+01
2.234021442552741821e+00 2.180781139590634229e-02 8.383948740986848946e+00 2.453269431098041764e+01
2.251474735072684918e+00 2.198654383790025341e-02 8.434951600195406130e+00 2.406986913491677882e+01
2.268928027592628460e+00 2.216862288465382483e-02 8.485606638595344364e+00 2.360725947267134472e+01
2.286381320112572002e+00 2.235423387056824363e-02 8.535933794422655652e+00 2.314460364978550189e+01
2.303834612632515100e+00 2.254357534536061483e-02 8.585952423213434770e+00 2.268164265346253927e+01
2.321287905152458197e+00 2.273686042350233846e-02 8.635681340293869468e+00 2.221811872045604730e+01
2.338741197672401295e+00 2.293431830233746277e-02 8.685138860903428792e+00 2.175377537447804599e+01
2.356194490192344837e+00 2.313619597661923516e-02 8.734342837949640170e+00 2.128835722133215569e+01
2.373647782712288379e+00 2.334276011719488286e-02 8.783310697758203389e+00 2.082161626428889178e+01
2.391101075232231477e+00 2.355427190970796336e-02 8.832059474036132229e+00 2.035593790102825196e+01
2.408554367752174574e+00 2.377082021543745413e-02 8.880605840245744176e+00 1.990877471109625674e+01
2.426007660272118116e+00 2.399229079807616363e-02 8.928966140413624686e+00 1.949728390987510807e+01
2.443460952792061214e+00 2.421859844498913325e-02 8.977156418578312369e+00 1.911608692151591526e+01
2.460914245312004311e+00 2.444965808588912132e-02 9.025192447036815224e+00 1.876287868970473838e+01
2.478367537831947853e+00 2.468538448795978488e-02 9.073089753514823386e+00 1.843563371812313179e+01
2.495820830351891395e+00 2.492569190031784093e-02 9.120863647397591478e+00 1.813257309602774114e+01
2.513274122871834493e+00 2.517049390366575198e-02 9.168529245110750736e+00 1.785211806447865612e+01
2.530727415391777591e+00 2.541970344598311338e-02 9.216101494728373922e+00 1.759285285513778163e+01
2.548180707911721132e+00 2.567323300546922940e-02 9.263595199937460833e+00 1.735349757613731470e+01
2.565634000431664674e+00 2.593099482760639549e-02 9.311025043455623873e+00 1.713288869326037300e+01
2.583087292951607772e+00 2.619290123812466689e-02 9.358405609993013741e+00 1.692996207350250870e+01
2.600540585471550870e+00 2.645886509820922008e-02 9.405751408846635186e+00 1.674373405953920724e+01
2.617993877991494411e+00 2.672880045374075725e-02 9.453076896221835668e+00 1.657328179289533665e+01
2.635447170511437509e+00 2.700262319801819549e-02 9.500396497362755710e+00 1.641773674141151673e+01
2.652900463031380607e+00 2.728025079848358375e-02 9.547724628551804926e+00 1.627633430608266707e+01
2.670353755551324149e+00 2.756158921685617283e-02 9.595075719074440457e+00 1.614913816511694478e+01
2.687807048071267690e+00 2.784654169379525632e-02 9.642464233232416859e+00 1.603572840435452562e+01
2.705260340591210788e+00 2.813503386300878623e-02 9.689904692487168347e+00 1.593435031528064805e+01
2.722713633111153886e+00 2.842698209659852079e-02 9.737411697815785416e+00 1.584511280397553534e+01
2.740166925631096984e+00 2.872228287064861399e-02 9.784999952364636044e+00 1.576870463653531473e+01
2.757620218151040525e+00 2.902087239865666982e-02 9.832684284504869865e+00 1.570265998209222147e+01
2.775073510670984067e+00 2.932263791711553144e-02 9.880479671360973271e+00 1.564928129059771322e+01
2.792526803190927165e+00 2.962750892332764729e-02 9.928401262890353962e+00 1.560610160249148315e+01
2.809980095710870263e+00 2.993540296625152655e-02 9.976464406623398062e+00 1.557354725572561804e+01
2.827433388230813804e+00 3.024621362266085092e-02 1.002468467316466416e+01 1.555265100999450034e+01
2.844886680750756902e+00 3.055986063275528339e-02 1.007307788256044212e+01 1.554194848163749576e+01
2.862339973270700000e+00 3.087626097089814226e-02 1.012166013166529765e+01 1.554148193258908606e+01
2.879793265790643542e+00 3.119532758804254013e-02 1.017044782265417346e+01 1.555138140213445652e+01
2.897246558310587083e+00 3.151697226238130145e-02 1.021945769272717186e+01 1.557166443892514707e+01
2.914699850830530625e+00 3.184110995567959734e-02 1.026870684517122356e+01 1.560216905584352354e+01
2.932153143350473723e+00 3.216766363394980149e-02 1.031821278192503577e+01 1.564253669106432909e+01
2.949606435870416821e+00 3.249654146265555654e-02 1.036799343784839955e+01 1.569353324839043573e+01
2.967059728390360362e+00 3.282763078101771925e-02 1.041806721716835682e+01 1.575623162213736705e+01
2.984513020910303460e+00 3.316089025293544879e-02 1.046845303061128973e+01 1.582735273512923335e+01
3.001966313430246558e+00 3.349618297951525298e-02 1.051917033700388338e+01 1.591158837293532002e+01
3.019419605950190100e+00 3.383346285390999991e-02 1.057023912663634313e+01 1.600478888020502666e+01
3.036872898470133197e+00 3.417262956339842117e-02 1.062167328795231391e+01 1.610762029569798059e+01
3.054326190990076295e+00 3.451358176811746697e-02 1.067346487524602594e+01 1.621328972687489056e+01
3.071779483510019837e+00 3.485624224974440827e-02 1.072559459214008903e+01 1.631709051928185517e+01
3.089232776029963379e+00 3.520052564268454781e-02 1.077804686646574872e+01 1.642057335693100484e+01
3.106686068549906921e+00 3.554635188723356126e-02 1.083080765802435153e+01 1.652396237311452865e+01
3.124139361069850018e+00 3.589363724177555698e-02 1.088386255370467204e+01 1.662731194487868081e+01
3.141592653589793116e+00 3.624227438267105250e-02 1.093719263313685985e+01 1.673032742272186013e+01
3.159045946109736214e+00 3.659218063669797405e-02 1.099078375256669915e+01 1.683332029458478019e+01
3.176499238629679756e+00 3.694328107058814092e-02 1.104462193543744775e+01 1.693596242277466146e+01
3.193952531149622853e+00 3.729549037195126898e-02 1.109869118263470789e+01 1.703810418400125570e+01
3.211405823669565951e+00 3.764871977212561754e-02 1.115297630593629208e+01 1.714015576417349962e+01
3.228859116189509493e+00 3.800288067440674850e-02 1.120746270111007625e+01 1.724228275043719094e+01
3.246312408709452590e+00 3.835788468019346587e-02 1.126213543943890372e+01 1.734436158092807645e+01
3.263765701229396576e+00 3.871364358898782276e-02 1.131697918242640633e+01 1.744623907745003066e+01
3.281218993749339674e+00 3.907006929851961768e-02 1.137197818179699560e+01 1.754776392770832771e+01
3.298672286269282772e+00 3.942707353718720442e-02 1.142711639311362681e+01 1.764883130729205973e+01
3.316125578789226314e+00 3.978456829195319705e-02 1.148237791664613461e+01 1.774945475396537375e+01
3.333578871309169411e+00 4.014246594028729465e-02 1.153774705657808397e+01 1.784965993067241286e+01
3.351032163829112509e+00 4.050067925016627435e-02 1.159320830740404240e+01 1.794946798687470135e+01
3.368485456349056051e+00 4.085912138007399136e-02 1.164874635392958346e+01 1.804890003123582076e+01
3.385938748868999149e+00 4.121770587900137894e-02 1.170434607127128324e+01 1.814797725999596167e+01
3.403392041388942246e+00 4.157634668644644843e-02 1.175999252485672564e+01 1.824672108178383567e+01
3.420845333908885788e+00 4.193495803220465695e-02 1.181567097042449710e+01 1.834515836587731386e+01
3.438298626428828886e+00 4.229345360067887638e-02 1.187136683799301018e+01 1.844335421160600674e+01
