# angles(rad), pulling distance(m),                                     elastic band force(n), cable force(n)
0.000000000000000000e+00 3.199676579347021568e-04 2.612778807512596696e-02 2.133532226679015278e-02
1.745329251994329547e-02 6.293078533564038348e-04 5.269893586083631426e-02 4.526638418260067742e-02
3.490658503988659095e-02 9.287276450006525658e-04 7.973725281706360579e-02 7.200462945509519819e-02
5.235987755982988295e-02 1.218933936981653242e-03 1.072679932349753368e-01 1.017609665436116501e-01
6.981317007977318190e-02 1.500531458494261698e-03 1.353181275038872200e-01 1.347913726340030371e-01
8.726646259971647390e-02 1.773883712671999726e-03 1.639165093008087826e-01 1.714910648863763876e-01
1.047197551196597659e-01 2.039239376929182293e-03 1.930940633473235690e-01 2.123192842010414583e-01
1.221730476396030718e-01 2.296818744704442160e-03 2.228840008894535096e-01 2.577729933489876779e-01
1.396263401595463638e-01 2.546842104214985716e-03 2.533212079964679009e-01 3.083867878378145355e-01
1.570796326794896558e-01 2.789512067775292391e-03 2.844368854466864938e-01 3.647112420777374742e-01
1.745329251994329478e-01 3.025040816179244089e-03 3.162433003191936209e-01 4.270631792833994300e-01
1.919862177193762398e-01 3.253651244678265695e-03 3.487535432094523991e-01 4.959556076693231175e-01
2.094395102393195318e-01 3.475564177720344514e-03 3.819807061983658270e-01 5.719421130388417929e-01
2.268928027592628516e-01 3.691001447138712952e-03 4.159379058188252265e-01 6.556008872437673052e-01
2.443460952792061436e-01 3.900180179936485469e-03 4.506383222895966600e-01 7.475586667912572647e-01
2.617993877991494078e-01 4.103326845638027506e-03 4.860952536942535485e-01 8.484237733780141122e-01
2.792526803190927276e-01 4.300806572066852122e-03 5.223221543651495047e-01 9.581800191127232136e-01
2.967059728390360474e-01 4.492983603723829482e-03 5.593325539560294324e-01 1.077190190087346622e+00
3.141592653589793116e-01 4.680190477389582597e-03 5.971380040326556005e-01 1.205889001737149746e+00
3.316125578789225758e-01 4.862732199827204949e-03 6.357517563042462960e-01 1.344830129591308543e+00
3.490658503988658956e-01 5.040888514751976600e-03 6.751884215217951457e-01 1.494596458708961739e+00
3.665191429188092154e-01 5.214916930323835326e-03 7.154597026209660315e-01 1.655619210500768768e+00
3.839724354387524796e-01 5.385055083043545701e-03 7.565792021620333374e-01 1.828523329939669262e+00
4.014257279586957439e-01 5.551522709091212537e-03 7.985599588174707719e-01 2.013854110966480260e+00
4.188790204786390636e-01 5.714523395136856393e-03 8.414159719899182432e-01 2.212244307303719015e+00
4.363323129985823834e-01 5.874246319158394659e-03 8.851583285996367234e-01 2.424129880094505030e+00
4.537856055185257032e-01 6.030867424591316618e-03 9.298013130704269047e-01 2.650288124680680202e+00
4.712388980384689674e-01 6.184550852506708919e-03 9.753583873987454744e-01 2.891299026459524857e+00
4.886921905584122872e-01 6.335449862418842011e-03 1.021842351156992290e+00 3.147753112858846514e+00
5.061454830783556069e-01 6.483707942499110886e-03 1.069265877221954764e+00 3.420276194818942184e+00
5.235987755982988157e-01 6.629459540603647658e-03 1.117642317629892856e+00 3.709568723729111284e+00
5.410520681182421354e-01 6.772830990497013919e-03 1.166986564514388425e+00 4.016425389651548272e+00
5.585053606381854552e-01 6.913941012245565509e-03 1.217308395998188741e+00 4.341094077385373673e+00
5.759586531581287749e-01 7.052901581767284829e-03 1.268624817488735568e+00 4.684874714581876987e+00
5.934119456780720947e-01 7.189818206311067786e-03 1.320944548602504653e+00 5.047704311245425401e+00
6.108652381980153034e-01 7.324790714192314089e-03 1.374281897364754590e+00 5.430776534276379408e+00
6.283185307179586232e-01 7.457913504901365551e-03 1.428650720050727241e+00 5.834767830880816852e+00
6.457718232379019430e-01 7.589276036390073948e-03 1.484066193188384064e+00 6.260554614098993831e+00
6.632251157578451517e-01 7.718963314425784580e-03 1.540537085865529621e+00 6.708098570556767726e+00
6.806784082777884715e-01 7.847056001784874155e-03 1.598061450877040768e+00 7.176636864005428329e+00
6.981317007977317912e-01 7.973630940934138545e-03 1.656611641643432442e+00 7.663043592670871540e+00
7.155849933176750000e-01 8.098761346780718184e-03 1.716163832495181563e+00 8.167584480700025296e+00
7.330382858376184307e-01 8.222516972009845035e-03 1.776690943262670297e+00 8.689541935839582010e+00
7.504915783575616395e-01 8.344964669995742768e-03 1.838162715163728311e+00 9.228031314773154747e+00
7.679448708775049592e-01 8.466168514716241461e-03 1.900550762945069083e+00 9.782829256193329215e+00
7.853981633974482790e-01 8.586189821457233112e-03 1.963827499914140295e+00 1.035354467793463584e+01
8.028514559173914877e-01 8.705087218739172850e-03 2.027965514471523178e+00 1.093965760920843522e+01
8.203047484373349185e-01 8.822916663925857092e-03 2.092937570110931400e+00 1.154061754594621725e+01
8.377580409572781273e-01 8.939731659950645587e-03 2.158716605419211731e+00 1.215582764547707306e+01
8.552113334772214470e-01 9.055584630094098628e-03 2.225275732549190089e+00 1.278451559753713340e+01
8.726646259971647668e-01 9.170527455353631036e-03 2.292588141196616913e+00 1.342577315913614733e+01
8.901179185171079755e-01 9.284611390770103681e-03 2.360626947181466484e+00 1.407860258988723068e+01
9.075712110370514063e-01 9.397884685131877025e-03 2.429365156024553052e+00 1.474224003034618846e+01
9.250245035569946150e-01 9.510389935894085489e-03 2.498775288502649961e+00 1.541619814479124173e+01
9.424777960769379348e-01 9.622163951124293457e-03 2.568829147975919103e+00 1.610002072239322857e+01
9.599310885968812546e-01 9.733238630126102298e-03 2.639500044752793873e+00 1.679373164807822860e+01
9.773843811168245743e-01 9.843645884801251189e-03 2.710764827190874193e+00 1.749722572297938683e+01
9.948376736367677831e-01 9.953419348436043715e-03 2.782595401572464322e+00 1.820799119826388690e+01
1.012290966156711214e+00 1.006259437572458969e-02 2.854956677103041240e+00 1.892267049255748290e+01
1.029744258676654312e+00 1.017120759290140314e-02 2.927825158607280542e+00 1.964274505102909529e+01
1.047197551196597631e+00 1.027929584291313418e-02 3.001178232045262906e+00 2.036721357148410050e+01
1.064650843716540951e+00 1.038689603441993355e-02 3.074982989009908074e+00 2.109181861074586450e+01
1.082104136236484271e+00 1.049404513599941358e-02 3.149211485044683734e+00 2.181644351510595570e+01
1.099557428756427591e+00 1.060077984089780566e-02 3.223838360069847919e+00 2.254046447472670067e+01
1.117010721276370910e+00 1.070713605446455864e-02 3.298837720173050769e+00 2.326246016101374181e+01
1.134464013796314230e+00 1.081314885087682719e-02 3.374182869655507400e+00 2.398090808836717613e+01
1.151917306316257550e+00 1.091885247751151616e-02 3.449846625129950883e+00 2.469436099579444033e+01
1.169370598836200648e+00 1.102428056150586005e-02 3.525801466006774909e+00 2.540136168349454948e+01
1.186823891356144189e+00 1.112946640141699098e-02 3.602019622676626120e+00 2.610040440433787623e+01
1.204277183876087287e+00 1.123444298925135171e-02 3.678472687678911779e+00 2.678983164741371681e+01
1.221730476396030607e+00 1.133924301109216076e-02 3.755133680414762143e+00 2.746872288191893219e+01
1.239183768915973927e+00 1.144389889353966162e-02 3.831974704986398361e+00 2.813533798364925431e+01
1.256637061435917246e+00 1.154844288126374505e-02 3.908967847340178103e+00 2.878823780100352181e+01
1.274090353955860566e+00 1.165290704437151742e-02 3.986085595914392599e+00 2.942616277544768977e+01
1.291543646475803886e+00 1.175732327865379803e-02 4.063300622677362028e+00 3.004780516005144975e+01
1.308996938995747206e+00 1.186172336640886615e-02 4.140585805638018257e+00 3.065188338766463261e+01
1.326450231515690303e+00 1.196613911661848981e-02 4.217914229937411719e+00 3.123711323016360453e+01
1.343903524035633845e+00 1.207060238462737654e-02 4.295259174611530284e+00 3.180223915578350002e+01
1.361356816555576943e+00 1.217514507214993540e-02 4.372594136457749414e+00 3.234605965519945414e+01
1.378810109075520263e+00 1.227979916631791527e-02 4.449892673713627289e+00 3.286734239671568503e+01
1.396263401595463582e+00 1.238459687060531299e-02 4.527128757926667468e+00 3.336501504189456568e+01
1.413716694115406902e+00 1.248957063223769468e-02 4.604272291492040203e+00 3.383605851019285637e+01
1.431169986635350000e+00 1.259475314219219745e-02 4.681293260064272488e+00 3.427924863333002037e+01
1.448623279155293542e+00 1.270017736721921510e-02 4.758165696824523394e+00 3.469523172024297253e+01
1.466076571675236861e+00 1.280587669435297692e-02 4.834863412287323747e+00 3.508281351950736848e+01
1.483529864195180181e+00 1.291188497165834601e-02 4.911360388200073146e+00 3.544102657500096143e+01
1.500983156715123279e+00 1.301823650823316636e-02 4.987630338336092706e+00 3.576876549725944443e+01
1.518436449235066599e+00 1.312496610647401196e-02 5.063647322492840885e+00 3.606527192397788184e+01
1.535889741755009918e+00 1.323210922062118163e-02 5.139378406010442824e+00 3.632624442477211346e+01
1.553343034274953460e+00 1.333970200537531146e-02 5.214796526521935149e+00 3.655358059361396528e+01
1.570796326794896558e+00 1.344778131591019797e-02 5.289875520807122200e+00 3.674695295801615913e+01
1.588249619314839878e+00 1.355638475536464181e-02 5.364598374557788318e+00 3.691025825579855280e+01
1.605702911834782975e+00 1.366555085865195189e-02 5.438966040950504954e+00 3.705208850316599722e+01
1.623156204354726295e+00 1.377531913692245022e-02 5.512986284888278021e+00 3.717582129032031446e+01
1.640609496874669837e+00 1.388573007820941875e-02 5.586666848330390955e+00 3.728151905511784747e+01
1.658062789394613157e+00 1.399682524503595947e-02 5.660015458292476431e+00 3.736924639375794044e+01
1.675516081914556255e+00 1.410864747546310832e-02 5.733039793981988375e+00 3.743901555512427848e+01
1.692969374434499574e+00 1.422124090787629976e-02 5.805747502736862131e+00 3.749087220151881183e+01
1.710422666954442894e+00 1.433465099549837383e-02 5.878146208153930630e+00 3.752489612218217729e+01
1.727875959474386436e+00 1.444892471638067021e-02 5.950243424853078444e+00 3.754108873869511598e+01
1.745329251994329534e+00 1.456411073146602481e-02 6.022046574409644748e+00 3.753944526152107386e+01
1.762782544514272853e+00 1.468025938881440881e-02 6.093563428274992866e+00 3.752023442785278462e+01
1.780235837034215951e+00 1.479742284511828369e-02 6.164801749311736856e+00 3.748354137029929234e+01
1.797689129554159271e+00 1.491565536308806124e-02 6.235769297388566557e+00 3.742940309547994815e+01
1.815142422074102813e+00 1.503501335610404194e-02 6.306473511229232720e+00 3.735772028763481956e+01
1.832595714594046132e+00 1.515555545943757243e-02 6.376921929966256286e+00 3.726864339943892901e+01
1.850049007113989230e+00 1.527734289846481054e-02 6.447122196479809553e+00 3.716226402766430681e+01
1.867502299633932550e+00 1.540043960730936787e-02 6.517081978846200663e+00 3.703865368811362657e+01
1.884955592153875870e+00 1.552491229886493115e-02 6.586808971436745708e+00 3.689792311928012936e+01
1.902408884673818967e+00 1.565083089895037693e-02 6.656310898857571878e+00 3.674011914593375394e+01
1.919862177193762509e+00 1.577826871260708946e-02 6.725595520035715147e+00 3.656531169456030028e+01
1.937315469713705829e+00 1.590730255363504569e-02 6.794670624096418976e+00 3.637360375221064857e+01
1.954768762233649149e+00 1.603801328015039621e-02 6.863544056896768275e+00 3.616503809420716209e+01
1.972222054753592246e+00 1.617048593802681775e-02 6.932223647260522981e+00 3.593966393034210682e+01
1.989675347273535566e+00 1.630481010004383030e-02 7.000717409705038641e+00 3.569763384347793789e+01
2.007128639793478886e+00 1.644108042771467992e-02 7.069033163501510231e+00 3.543884699120508230e+01
2.024581932313422428e+00 1.657939682454880048e-02 7.137177319698595923e+00 3.516263705619208935e+01
2.042035224833365525e+00 1.671986515645722607e-02 7.205157456346992895e+00 3.486960952700793825e+01
2.059488517353308623e+00 1.686259759127179195e-02 7.272981633698713644e+00 3.456004914654776883e+01
2.076941809873252165e+00 1.700771322853694006e-02 7.340657814652732149e+00 3.423391827017644573e+01
2.094395102393195263e+00 1.715533876700329682e-02 7.408194338416842939e+00 3.389140511752700036e+01
2.111848394913138804e+00 1.730560909684811938e-02 7.475599108663262271e+00 3.353230414108556801e+01
2.129301687433081902e+00 1.745866822095915039e-02 7.542878081078731256e+00 3.315562461875937572e+01
2.146754979953025444e+00 1.761466999043011586e-02 7.610039082528214927e+00 3.276231081131628287e+01
2.164208272472968542e+00 1.777377923610854935e-02 7.677090614431117288e+00 3.235265707282349013e+01
2.181661564992911639e+00 1.793617272807926030e-02 7.744040800440768813e+00 3.192646243171819265e+01
2.199114857512855181e+00 1.810204037614777939e-02 7.810897114458305701e+00 3.148340235867875947e+01
2.216568150032798723e+00 1.827158708397108589e-02 7.877666144407215576e+00 3.102296313954910900e+01
2.234021442552741821e+00 1.844503391335270900e-02 7.944356024313134590e+00 3.054585379739660311e+01
2.251474735072684918e+00 1.862261859946353140e-02 8.010975296583609406e+00 3.005244180244844543e+01
2.268928027592628460e+00 1.880460256056150012e-02 8.077531309542626659e+00 2.954151977301775389e+01
2.286381320112572002e+00 1.899123536481088850e-02 8.144030769584961860e+00 2.901813809869609528e+01
2.303834612632515100e+00 1.918265237063805639e-02 8.210482310012165996e+00 2.850317268274744009e+01
2.321287905152458197e+00 1.937897351737144502e-02 8.276894229035262285e+00 2.799924707285432390e+01
2.338741197672401295e+00 1.958033200749807051e-02 8.343272498897556844e+00 2.750378159461771688e+01
2.356194490192344837e+00 1.978685317107876235e-02 8.409625535868242352e+00 2.701922574986244641e+01
2.373647782712288379e+00 1.999864999842953378e-02 8.475961613428898644e+00 2.654723652013738189e+01
2.391101075232231477e+00 2.021577707903518886e-02 8.542287511130346900e+00 2.609416043448700862e+01
2.408554367752174574e+00 2.043818878408348166e-02 8.608611479199691274e+00 2.567118815728927572e+01
2.426007660272118116e+00 2.066581991283809525e-02 8.674941292602913023e+00 2.527805579010051673e+01
2.443460952792061214e+00 2.089860915217888609e-02 8.741283875160336336e+00 2.491177636852561861e+01
2.460914245312004311e+00 2.113649276155343121e-02 8.807647853118414361e+00 2.457128297000787143e+01
2.478367537831947853e+00 2.137940754052817388e-02 8.874041135452035434e+00 2.425446162777488723e+01
2.495820830351891395e+00 2.162728915231837412e-02 8.940469965889780823e+00 2.395921823763638869e+01
2.513274122871834493e+00 2.188007507951283959e-02 9.006942384931821977e+00 2.368459570291359739e+01
2.530727415391777591e+00 2.213769992840492959e-02 9.073467081347653007e+00 2.342979124962095483e+01
2.548180707911721132e+00 2.240007339725313962e-02 9.140051462885493194e+00 2.319535875909560829e+01
2.565634000431664674e+00 2.266712567978624096e-02 9.206702674670873776e+00 2.297819303373542610e+01
2.583087292951607772e+00 2.293879405769791435e-02 9.273428147096399954e+00 2.277680894904789000e+01
2.600540585471550870e+00 2.321501561525157742e-02 9.340235790115231751e+00 2.259053000439732628e+01
2.617993877991494411e+00 2.349572853572806305e-02 9.407133718877759065e+00 2.241855345727665139e+01
2.635447170511437509e+00 2.378086986919525012e-02 9.474129896832003794e+00 2.226020636193893765e+01
2.652900463031380607e+00 2.407038126618763624e-02 9.541232001807136598e+00 2.211438851901880298e+01
2.670353755551324149e+00 2.436419890096427898e-02 9.608447417614598862e+00 2.198083817978033494e+01
2.687807048071267690e+00 2.466222175870845870e-02 9.675783534424473586e+00 2.186173554715512424e+01
2.705260340591210788e+00 2.496438684196941593e-02 9.743247866156155013e+00 2.175372809765284643e+01
2.722713633111153886e+00 2.527063779794396989e-02 9.810848116227775861e+00 2.165595806750055274e+01
2.740166925631096984e+00 2.558092000079356318e-02 9.878592108159097052e+00 2.156795516861591366e+01
2.757620218151040525e+00 2.589517194359482188e-02 9.946487592802446542e+00 2.148981449700928792e+01
2.775073510670984067e+00 2.621330349119582390e-02 1.001454228829699034e+01 2.142310723619502966e+01
2.792526803190927165e+00 2.653524258899834717e-02 1.008276401809482259e+01 2.136626483558421796e+01
2.809980095710870263e+00 2.686094215241250152e-02 1.015116060048705471e+01 2.131733567923503969e+01
2.827433388230813804e+00 2.719034203640183570e-02 1.021973957275405986e+01 2.127685135306900222e+01
2.844886680750756902e+00 2.752335139265524311e-02 1.028850840064627192e+01 2.124651005100336931e+01
2.862339973270700000e+00 2.785991063737252790e-02 1.035747517511055271e+01 2.122424701247696532e+01
2.879793265790643542e+00 2.819995995621681767e-02 1.042664751335816398e+01 2.120973484181229551e+01
2.897246558310587083e+00 2.854342714841158826e-02 1.049602657597940336e+01 2.120157329833443427e+01
2.914699850830530625e+00 2.889025204490542481e-02 1.056560550130088494e+01 2.119638709859256664e+01
2.932153143350473723e+00 2.924036597814409083e-02 1.063537301406763191e+01 2.119320175790538840e+01
2.949606435870416821e+00 2.959368945095340944e-02 1.070531604591311314e+01 2.119197615606263341e+01
2.967059728390360362e+00 2.995015898801235352e-02 1.077542017279936637e+01 2.119119151889004016e+01
2.984513020910303460e+00 3.030971727853446623e-02 1.084567131640653770e+01 2.119046711615736811e+01
3.001966313430246558e+00 3.067229828159440119e-02 1.091605622191896785e+01 2.119045342320740843e+01
3.019419605950190100e+00 3.103783198713413322e-02 1.098656243768201790e+01 2.119150518778153369e+01
3.036872898470133197e+00 3.140624807145350750e-02 1.105717784296144579e+01 2.119362123046129653e+01
3.054326190990076295e+00 3.177747850514393846e-02 1.112789017359643395e+01 2.119651240343483067e+01
3.071779483510019837e+00 3.215145846282317643e-02 1.119868700121019600e+01 2.119983963967337459e+01
3.089232776029963379e+00 3.252812266459260276e-02 1.126955573320999271e+01 2.120347835716344420e+01
3.106686068549906921e+00 3.290740306913624014e-02 1.134048361278711958e+01 2.120743509019311190e+01
3.124139361069850018e+00 3.328923082852216359e-02 1.141145771891691219e+01 2.121160631538711527e+01
3.141592653589793116e+00 3.367353959972297500e-02 1.148246496635874614e+01 2.121570706181986665e+01
3.159045946109736214e+00 3.406026574155827935e-02 1.155349210565603713e+01 2.121944715876124476e+01
3.176499238629679756e+00 3.444934594780113546e-02 1.162452575991106052e+01 2.122268186505301557e+01
3.193952531149622853e+00 3.484071503340573084e-02 1.169555259415450621e+01 2.122543926041604934e+01
3.211405823669565951e+00 3.523430584944177435e-02 1.176655944120139097e+01 2.122778917770684615e+01
3.228859116189509493e+00 3.563004961102596291e-02 1.183753332392134183e+01 2.122979016680669417e+01
3.246312408709452590e+00 3.602787743847751106e-02 1.190846145523859079e+01 2.123141870930120589e+01
3.263765701229396576e+00 3.642772080965532566e-02 1.197933123813196943e+01 2.123262920561811740e+01
3.281218993749339674e+00 3.682951156001771503e-02 1.205013024356539830e+01 2.123337174432820973e+01
3.298672286269282772e+00 3.723318188262240980e-02 1.212084602399759525e+01 2.123354227664770022e+01
3.316125578789226314e+00 3.763866432812653512e-02 1.219146601926424722e+01 2.123300976700884490e+01
3.333578871309169411e+00 3.804589180478662458e-02 1.226197727270269056e+01 2.123155819993105808e+01
3.351032163829112509e+00 3.845479757845863406e-02 1.233236565641674964e+01 2.122873634506856177e+01
3.368485456349056051e+00 3.886531527259791396e-02 1.240261685608386166e+01 2.122438875572149541e+01
3.385938748868999149e+00 3.927737847071104821e-02 1.247271967815706617e+01 2.121938703506115331e+01
3.403392041388942246e+00 3.969091949986180284e-02 1.254266284721951585e+01 2.121370133014235293e+01
3.420845333908885788e+00 4.010587052791734358e-02 1.261243087145701658e+01 2.120598150719236585e+01
3.438298626428828886e+00 4.052216393724684951e-02 1.268201160186881538e+01 2.119715591390628617e+01
