# angles(rad), pulling distance(m),                                     elastic band force(n), cable force(n)
0.000000000000000000e+00 3.317055052644328960e-04 2.483237458984444146e-02 1.859018973106178058e-02
1.745329251994329547e-02 6.516453255370019361e-04 5.012812512288797318e-02 3.963334563098411256e-02
3.490658503988659095e-02 9.607070177648169501e-04 7.591324231209181650e-02 6.333466419341475528e-02
5.235987755982988295e-02 1.259270760352850828e-03 1.022151202945891652e-01 9.004608525637904093e-02
6.981317007977318190e-02 1.547602646452161902e-03 1.290632627982120362e-01 1.201777895073120189e-01
8.726646259971647390e-02 1.826009836874057648e-03 1.564893682326840008e-01 1.541588744895418528e-01
1.047197551196597659e-01 2.094769623635534504e-03 1.845275968042895676e-01 1.925074803530591461e-01
1.221730476396030718e-01 2.354184969067342047e-03 2.132148356634486763e-01 2.357819237259257961e-01
1.396263401595463638e-01 2.604542167964710338e-03 2.425910114828806474e-01 2.846491427816440489e-01
1.570796326794896558e-01 2.846123888863830078e-03 2.726993154377801432e-01 3.398648642345863391e-01
1.745329251994329478e-01 3.079321344874348578e-03 3.035856165614581048e-01 4.020900112011379646e-01
1.919862177193762398e-01 3.304767054388786564e-03 3.352730424629860040e-01 4.712416001487624850e-01
2.094395102393195318e-01 3.523021948737232751e-03 3.677769528578029301e-01 5.477168865630969163e-01
2.268928027592628516e-01 3.734593318716407460e-03 4.011166892448770893e-01 6.320857439830587232e-01
2.443460952792061436e-01 3.939939021603942534e-03 4.352985187494841646e-01 7.245975709387993957e-01
2.617993877991494078e-01 4.139474008893918346e-03 4.703432745676883742e-01 8.260739347934540344e-01
2.792526803190927276e-01 4.333575589555761949e-03 5.062640173539955102e-01 9.369001265897629604e-01
2.967059728390360474e-01 4.522587875760251432e-03 5.430717822602280087e-01 1.057563975868585082e+00
3.141592653589793116e-01 4.706825613090694950e-03 5.807869572677499814e-01 1.188924812735414172e+00
3.316125578789225758e-01 4.886577471563171779e-03 6.194201430218088111e-01 1.331289347911320586e+00
3.490658503988658956e-01 5.062108903067516659e-03 6.589842732422743765e-01 1.485325982722977889e+00
3.665191429188092154e-01 5.233664615727665753e-03 6.994981316671281535e-01 1.651904669065260345e+00
3.839724354387524796e-01 5.401470707835785874e-03 7.409763066511138030e-01 1.831539279662124375e+00
4.014257279586957439e-01 5.565736523922777505e-03 7.834275356406749102e-01 2.024612454644698190e+00
4.188790204786390636e-01 5.726656374656491702e-03 8.268694293923903871e-01 2.232215213624981320e+00
4.363323129985823834e-01 5.884410959938000257e-03 8.713182142017654730e-01 2.455018073448221649e+00
4.537856055185257032e-01 6.039168595533660720e-03 9.167900200643617215e-01 2.693766782406274984e+00
4.712388980384689674e-01 6.191086471979388023e-03 9.632961027923570008e-01 2.948904322265277766e+00
4.886921905584122872e-01 6.340311546120807815e-03 1.010849268233914744e+00 3.221247016654189110e+00
5.061454830783556069e-01 6.486981521938937553e-03 1.059464969683366897e+00 3.511736630143535098e+00
5.235987755982988157e-01 6.631225629859238690e-03 1.109158185559402154e+00 3.821136124751060681e+00
5.410520681182421354e-01 6.773165329980324577e-03 1.159943838481870770e+00 4.150248671826306968e+00
5.585053606381854552e-01 6.912915009103369479e-03 1.211836716872549014e+00 4.499881199917256325e+00
5.759586531581287749e-01 7.050582504502347567e-03 1.264852396565246284e+00 4.870939891838934166e+00
5.934119456780720947e-01 7.186269684949592174e-03 1.319006057568488766e+00 5.264241372497178162e+00
6.108652381980153034e-01 7.320072897212949285e-03 1.374308040452417501e+00 5.680129680351375221e+00
6.283185307179586232e-01 7.452083386636411226e-03 1.430772821690126984e+00 6.119837501582251704e+00
6.457718232379019430e-01 7.582387755831812397e-03 1.488404350991487268e+00 6.582973348944729963e+00
6.632251157578451517e-01 7.711068194746639563e-03 1.547187959923090439e+00 7.067841293267819403e+00
6.806784082777884715e-01 7.838202978267044471e-03 1.607091583618390551e+00 7.572326534343642557e+00
6.981317007977317912e-01 7.963866585424582076e-03 1.668079297647850900e+00 8.095609021940116889e+00
7.155849933176750000e-01 8.088130104566779513e-03 1.730116646300041250e+00 8.637438432163845548e+00
7.330382858376184307e-01 8.211061446213663642e-03 1.793170655159056270e+00 9.197540420644285675e+00
7.504915783575616395e-01 8.332725493766042837e-03 1.857209286761989819e+00 9.775537121867927226e+00
7.679448708775049592e-01 8.453184466612950407e-03 1.922199600171819567e+00 1.037069730041478088e+01
7.853981633974482790e-01 8.572497981497465003e-03 1.988108554406831097e+00 1.098233975031789811e+01
8.028514559173914877e-01 8.690723266278531367e-03 2.054903345383603863e+00 1.160977025232348936e+01
8.203047484373349185e-01 8.807915407293561219e-03 2.122551405917012968e+00 1.225222824236419861e+01
8.377580409572781273e-01 8.924127375849275762e-03 2.191020405720228048e+00 1.290890926231721281e+01
8.552113334772214470e-01 9.039410242021686873e-03 2.260278235382350509e+00 1.357894457455601334e+01
8.726646259971647668e-01 9.153813352394384734e-03 2.330292888238859828e+00 1.426138215058297476e+01
8.901179185171079755e-01 9.267384345197035925e-03 2.401032403250694447e+00 1.495521554775822182e+01
9.075712110370514063e-01 9.380169328330831974e-03 2.472464423890925467e+00 1.565927704667005393e+01
9.250245035569946150e-01 9.492213035091710133e-03 2.544555406046748569e+00 1.637213759477933905e+01
9.424777960769379348e-01 9.603558832425610967e-03 2.617272662295555996e+00 1.709277686399021334e+01
9.599310885968812546e-01 9.714248843139530395e-03 2.690587542848714708e+00 1.782094906753541963e+01
9.773843811168245743e-01 9.824324107885300250e-03 2.764467667085313440e+00 1.855450587959390774e+01
9.948376736367677831e-01 9.933824596365171608e-03 2.838874835274046493e+00 1.929056575613622471e+01
1.012290966156711214e+00 1.004278926500306972e-02 2.913777120144913635e+00 2.002929634270487114e+01
1.029744258676654312e+00 1.015125622603656880e-02 2.989144921367182572e+00 2.076994488566709762e+01
1.047197551196597631e+00 1.025926277834687990e-02 3.064947457773101736e+00 2.151080525027483148e+01
1.064650843716540951e+00 1.036684542052166563e-02 3.141152642523838967e+00 2.225006865558265190e+01
1.082104136236484271e+00 1.047403998443701030e-02 3.217726448586569976e+00 2.298563957325058738e+01
1.099557428756427591e+00 1.058088171348793398e-02 3.294633893189004237e+00 2.371562832954235844e+01
1.117010721276370910e+00 1.068740526387181901e-02 3.371843273890061443e+00 2.443947184072258594e+01
1.134464013796314230e+00 1.079364476256484268e-02 3.449322892924110207e+00 2.515563674122778792e+01
1.151917306316257550e+00 1.089963393456163006e-02 3.527040986298743519e+00 2.586253817678960232e+01
1.169370598836200648e+00 1.100540611976876838e-02 3.604964728471474089e+00 2.655824321801366139e+01
1.186823891356144189e+00 1.111099428105106167e-02 3.683058641299082225e+00 2.724021869304134214e+01
1.204277183876087287e+00 1.121643110860582465e-02 3.761290470569043087e+00 2.790795595357379000e+01
1.221730476396030607e+00 1.132174909283165283e-02 3.839628283386607777e+00 2.855999229039565535e+01
1.239183768915973927e+00 1.142698052581774155e-02 3.918040765370463863e+00 2.919501257454483678e+01
1.256637061435917246e+00 1.153215753314154601e-02 3.996496916184446579e+00 2.981162639648727719e+01
1.274090353955860566e+00 1.163731219288270148e-02 4.074966721359849053e+00 3.040871850172577240e+01
1.291543646475803886e+00 1.174247656346217097e-02 4.153413889559772976e+00 3.098231427648569536e+01
1.308996938995747206e+00 1.184768268539482597e-02 4.231802449127607169e+00 3.153095012618115689e+01
1.326450231515690303e+00 1.195296265381005224e-02 4.310103064389323890e+00 3.205583425443796841e+01
1.343903524035633845e+00 1.205834871527922819e-02 4.388286408254686854e+00 3.255562457247953745e+01
1.361356816555576943e+00 1.216387327455737029e-02 4.466320434557237817e+00 3.302785329311039675e+01
1.378810109075520263e+00 1.226956890851698193e-02 4.544164676592677310e+00 3.346751816340304941e+01
1.396263401595463582e+00 1.237546848028890471e-02 4.621790920519411650e+00 3.387853825767085425e+01
1.413716694115406902e+00 1.248160519513959350e-02 4.699170570444969108e+00 3.425960321016636101e+01
1.431169986635350000e+00 1.258801260106884659e-02 4.776269585467225021e+00 3.460714762326981742e+01
1.448623279155293542e+00 1.269472464319586560e-02 4.853049259160756357e+00 3.491785285989339371e+01
1.466076571675236861e+00 1.280177578966246177e-02 4.929481438992295850e+00 3.519542053095736378e+01
1.483529864195180181e+00 1.290920104939859668e-02 5.005537421064466308e+00 3.543869154174344516e+01
1.500983156715123279e+00 1.301703598324368064e-02 5.081182467249059975e+00 3.564394845918760524e+01
1.518436449235066599e+00 1.312531683079229058e-02 5.156378395169819662e+00 3.580860945526740835e+01
1.535889741755009918e+00 1.323408059108649795e-02 5.231096119025544944e+00 3.593619733510870162e+01
1.553343034274953460e+00 1.334336502453925023e-02 5.305308661529363867e+00 3.602712958290116063e+01
1.570796326794896558e+00 1.345320873119908167e-02 5.379004676195553003e+00 3.608865901931284270e+01
1.588249619314839878e+00 1.356365130392749203e-02 5.452189794528438327e+00 3.612910722997578716e+01
1.605702911834782975e+00 1.367473334616324358e-02 5.524872086100181434e+00 3.614989027715915881e+01
1.623156204354726295e+00 1.378649651092864539e-02 5.597060996826696666e+00 3.615195914314926284e+01
1.640609496874669837e+00 1.389898369190014672e-02 5.668765661509003628e+00 3.613540115509341888e+01
1.658062789394613157e+00 1.401223908182039346e-02 5.739995137105410095e+00 3.610043140815201923e+01
1.675516081914556255e+00 1.412630819562440444e-02 5.810758357083638970e+00 3.604726627131712036e+01
1.692969374434499574e+00 1.424123807565053773e-02 5.881064171925645567e+00 3.597611070779397835e+01
1.710422666954442894e+00 1.435707739904638555e-02 5.950921365142201047e+00 3.588717988283472948e+01
1.727875959474386436e+00 1.447387650061939153e-02 6.020338672735806362e+00 3.578072911817340440e+01
1.745329251994329534e+00 1.459168760472698279e-02 6.089324799834260560e+00 3.565698987096310191e+01
1.762782544514272853e+00 1.471056496471976824e-02 6.157888435892895806e+00 3.551620103557670660e+01
1.780235837034215951e+00 1.483056490257145602e-02 6.226038268253867081e+00 3.535864033353941949e+01
1.797689129554159271e+00 1.495174609988906417e-02 6.293782994182974377e+00 3.518455118748446608e+01
1.815142422074102813e+00 1.507416973328547585e-02 6.361131331428178548e+00 3.499419240260987607e+01
1.832595714594046132e+00 1.519789957447436474e-02 6.428092027438961686e+00 3.478785004836264250e+01
1.850049007113989230e+00 1.532300235432285801e-02 6.494673867028005532e+00 3.456576537478346722e+01
1.867502299633932550e+00 1.544954785421273971e-02 6.560885679876725440e+00 3.432821673910643767e+01
1.884955592153875870e+00 1.557760918114748337e-02 6.626736342421078341e+00 3.407546908189812029e+01
1.902408884673818967e+00 1.570726310583998517e-02 6.692234795836106365e+00 3.380777173210007902e+01
1.919862177193762509e+00 1.583859019445883060e-02 6.757390003490068686e+00 3.352538714644354911e+01
1.937315469713705829e+00 1.597167530846193423e-02 6.822211087651014694e+00 3.322859377541339398e+01
1.954768762233649149e+00 1.610660778417945943e-02 6.886707029897968901e+00 3.291755053852472912e+01
1.972222054753592246e+00 1.624348192565080312e-02 6.950885938213670734e+00 3.259200507459659946e+01
1.989675347273535566e+00 1.638239735978864325e-02 7.014755961463619016e+00 3.225218487290887737e+01
2.007128639793478886e+00 1.652345950837187313e-02 7.078326144243489715e+00 3.189874046896498072e+01
2.024581932313422428e+00 1.666678011226234088e-02 7.141605921595798989e+00 3.153204915337179770e+01
2.042035224833365525e+00 1.681247776007539774e-02 7.204604483978149787e+00 3.115216558653163403e+01
2.059488517353308623e+00 1.696067853788916016e-02 7.267330356014861437e+00 3.075892317736344950e+01
2.076941809873252165e+00 1.711151671596796917e-02 7.329791318800637612e+00 3.035211831794424242e+01
2.094395102393195263e+00 1.726513548789541594e-02 7.391996568401248524e+00 2.993260431748727513e+01
2.111848394913138804e+00 1.742168791066824735e-02 7.453955755994373433e+00 2.950072792336569094e+01
2.129301687433081902e+00 1.758133775104307739e-02 7.515677474011386749e+00 2.905612211503860820e+01
2.146754979953025444e+00 1.774426071047472547e-02 7.577169476347471289e+00 2.859850599116754211e+01
2.164208272472968542e+00 1.791064554864730402e-02 7.638441449954195939e+00 2.812890814201830381e+01
2.181661564992911639e+00 1.808069545385157864e-02 7.699502802506843047e+00 2.764729886436519735e+01
2.199114857512855181e+00 1.825462983160017899e-02 7.760360699367526927e+00 2.715272490447149067e+01
2.216568150032798723e+00 1.843268557362113050e-02 7.821024782607678638e+00 2.664644751414843071e+01
2.234021442552741821e+00 1.861511983606082068e-02 7.881504431094145779e+00 2.612834953054263210e+01
2.251474735072684918e+00 1.880221253054457572e-02 7.941807148459202992e+00 2.559760834931513784e+01
2.268928027592628460e+00 1.899424069683568195e-02 8.001942672033479198e+00 2.505887659545733470e+01
2.286381320112572002e+00 1.919136329801310673e-02 8.061920448579222409e+00 2.452971198159175970e+01
2.303834612632515100e+00 1.939369848981593869e-02 8.121747737689812396e+00 2.401471269810257780e+01
2.321287905152458197e+00 1.960137525829927507e-02 8.181433277983886754e+00 2.351313866941110575e+01
2.338741197672401295e+00 1.981452039721623773e-02 8.240986858112039570e+00 2.302563753897444698e+01
2.356194490192344837e+00 2.003324908003343077e-02 8.300417529902984981e+00 2.255302704674388536e+01
2.373647782712288379e+00 2.025760349015343076e-02 8.359733722955875024e+00 2.210197602607332712e+01
2.391101075232231477e+00 2.048752099997295725e-02 8.418943632027646728e+00 2.168103191983971101e+01
2.408554367752174574e+00 2.072291197915909072e-02 8.478056068803470069e+00 2.129047404797712417e+01
2.426007660272118116e+00 2.096369105404795319e-02 8.537080222190878587e+00 2.092764633919277628e+01
2.443460952792061214e+00 2.120977163361048926e-02 8.596025050423422798e+00 2.059045947390941933e+01
2.460914245312004311e+00 2.146106729497983950e-02 8.654899387669278354e+00 2.027697026689451576e+01
2.478367537831947853e+00 2.171748360843328562e-02 8.713712069947030514e+00 1.998612227621265092e+01
2.495820830351891395e+00 2.197892057845716660e-02 8.772471917299782262e+00 1.971676426328512832e+01
2.513274122871834493e+00 2.224529326173688148e-02 8.831187716856851111e+00 1.946634472609547117e+01
2.530727415391777591e+00 2.251651589307790066e-02 8.889868189156633349e+00 1.923370706357589910e+01
2.548180707911721132e+00 2.279250270174067519e-02 8.948522008338837708e+00 1.901775647786150714e+01
2.565634000431664674e+00 2.307316754936924313e-02 9.007157934424443013e+00 1.881757018546283078e+01
2.583087292951607772e+00 2.335842409360960881e-02 9.065784806985774935e+00 1.863230209014112759e+01
2.600540585471550870e+00 2.364818580757825986e-02 9.124411388293733438e+00 1.846113618036310910e+01
2.617993877991494411e+00 2.394236607117282076e-02 9.183046356553360212e+00 1.830332276761001609e+01
2.635447170511437509e+00 2.424087829183907764e-02 9.241698433226561704e+00 1.815821154277724503e+01
2.652900463031380607e+00 2.454363598203536043e-02 9.300376406416546615e+00 1.802521472133929947e+01
2.670353755551324149e+00 2.485055310932139661e-02 9.359089078951633667e+00 1.790376239925773660e+01
2.687807048071267690e+00 2.516154368148490125e-02 9.417845257782603952e+00 1.779335612392010546e+01
2.705260340591210788e+00 2.547652352520311456e-02 9.476653815063608377e+00 1.769346038580127356e+01
2.722713633111153886e+00 2.579540757979111726e-02 9.535523714520882876e+00 1.760374387711449629e+01
2.740166925631096984e+00 2.611808564606601241e-02 9.594463893776996599e+00 1.752518937199061355e+01
2.757620218151040525e+00 2.644447088959287970e-02 9.653483151984772803e+00 1.745610213853024817e+01
2.775073510670984067e+00 2.677448104263601553e-02 9.712590189722391187e+00 1.739590220422423172e+01
2.792526803190927165e+00 2.710803252940805624e-02 9.771793704456671392e+00 1.734438476532831785e+01
2.809980095710870263e+00 2.744504959359295171e-02 9.831102406208252376e+00 1.730090201542910577e+01
2.827433388230813804e+00 2.778544954139025580e-02 9.890525040347576180e+00 1.726560343858682245e+01
2.844886680750756902e+00 2.812912527986823757e-02 9.950070397780368836e+00 1.723952062898557003e+01
2.862339973270700000e+00 2.847598148170325458e-02 1.000974734824647250e+01 1.722186870291703542e+01
2.879793265790643542e+00 2.882595415281182655e-02 1.006956489298264579e+01 1.721096240320184023e+01
2.897246558310587083e+00 2.917896492704018935e-02 1.012953166827310802e+01 1.720727506622813152e+01
2.914699850830530625e+00 2.953488916087184182e-02 1.018965104974087765e+01 1.721140232256812297e+01
2.932153143350473723e+00 2.989365386987873074e-02 1.024991838568979929e+01 1.721839577001263422e+01
2.949606435870416821e+00 3.025519479958278107e-02 1.031032205289203318e+01 1.722574709703103935e+01
2.967059728390360362e+00 3.061940479022847578e-02 1.037084936171558169e+01 1.723510112850583198e+01
2.984513020910303460e+00 3.098618593537442317e-02 1.043148855163331312e+01 1.724617046918885066e+01
3.001966313430246558e+00 3.135545800318377541e-02 1.049222878839665363e+01 1.725829046759537633e+01
3.019419605950190100e+00 3.172714002266145694e-02 1.055305979682055550e+01 1.727157182100033239e+01
3.036872898470133197e+00 3.210114722528888132e-02 1.061397122211330490e+01 1.728608728958566232e+01
3.054326190990076295e+00 3.247739006372157150e-02 1.067495256592781949e+01 1.730193604051683920e+01
3.071779483510019837e+00 3.285577634603392694e-02 1.073599318636165378e+01 1.731911846973281044e+01
3.089232776029963379e+00 3.323621652282287425e-02 1.079708229795699559e+01 1.733739509247190469e+01
3.106686068549906921e+00 3.361862427450279522e-02 1.085820897170066601e+01 1.735650478678765651e+01
3.124139361069850018e+00 3.400291438491616358e-02 1.091936213502411768e+01 1.737628728755904461e+01
3.141592653589793116e+00 3.438900135379222706e-02 1.098053057180344005e+01 1.739664749732547833e+01
3.159045946109736214e+00 3.477679937152648032e-02 1.104170294133854746e+01 1.741749832995041558e+01
3.176499238629679756e+00 3.516622226841745885e-02 1.110286788884462794e+01 1.743878793491310475e+01
3.193952531149622853e+00 3.555718345034976358e-02 1.116401420273004419e+01 1.746051393868470214e+01
3.211405823669565951e+00 3.594959589465544086e-02 1.122513084917100912e+01 1.748268596772500061e+01
3.228859116189509493e+00 3.634337215011396172e-02 1.128620697211158763e+01 1.750531564578132659e+01
3.246312408709452590e+00 3.673842433695224258e-02 1.134723189326370374e+01 1.752841661561680198e+01
3.263765701229396576e+00 3.713466414684463146e-02 1.140819510747008714e+01 1.755200322334572505e+01
3.281218993749339674e+00 3.753200284291290795e-02 1.146908601294205887e+01 1.757601359178877587e+01
3.298672286269282772e+00 3.793035126710294497e-02 1.152989349792142626e+01 1.760026607646580743e+01
3.316125578789226314e+00 3.832962004036594150e-02 1.159060604802240135e+01 1.762460020703135299e+01
3.333578871309169411e+00 3.872972025273365565e-02 1.165121316921787731e+01 1.764924053507218105e+01
3.351032163829112509e+00 3.913056363399304571e-02 1.171170584231869327e+01 1.767454387662325743e+01
3.368485456349056051e+00 3.953206255368625632e-02 1.177207253860833980e+01 1.769970211080172007e+01
3.385938748868999149e+00 3.993413002111063231e-02 1.183229875600602732e+01 1.772375670577293860e+01
3.403392041388942246e+00 4.033667968531871179e-02 1.189237577448485439e+01 1.774833126656383442e+01
3.420845333908885788e+00 4.073962583511823304e-02 1.195229507764995169e+01 1.777342189850255849e+01
3.438298626428828886e+00 4.114288339907212072e-02 1.201204218429632320e+01 1.779718050144087371e+01
