# angles(rad), pulling distance(m),                                     elastic band force(n), cable force(n)
0.000000000000000000e+00 3.229874280557679719e-04 2.173902914706930117e-02 1.463169607256449047e-02
1.745329251994329547e-02 6.414559487047485258e-04 4.377370350331727389e-02 3.028680197644002814e-02
3.490658503988659095e-02 9.556164216994613271e-04 6.611992034316996336e-02 4.703106228921197229e-02
5.235987755982988295e-02 1.265573285413543149e-03 8.879375153617766192e-02 6.495402325345221717e-02
6.981317007977318190e-02 1.571346899549343592e-03 1.118118244618397511e-01 8.416987635404422907e-02
8.726646259971647390e-02 1.872948559624363707e-03 1.351919251393867982e-01 1.048005113686725082e-01
1.047197551196597659e-01 2.170413129368589569e-03 1.589530323056164984e-01 1.269697442710061575e-01
1.221730476396030718e-01 2.463753366550818294e-03 1.831152773270110501e-01 1.508308659063122559e-01
1.396263401595463638e-01 2.752987871347272689e-03 2.077000324367461181e-01 1.765437507995426536e-01
1.570796326794896558e-01 3.038149064312667142e-03 2.327300968289141292e-01 2.042791744923768138e-01
1.745329251994329478e-01 3.319239918915641366e-03 2.582298142881373493e-01 2.342583259493037640e-01
1.919862177193762398e-01 3.596301206757279365e-03 2.842252143358502403e-01 2.666755867579196915e-01
2.094395102393195318e-01 3.869331451361594527e-03 3.107441922181563565e-01 3.018207148600312584e-01
2.268928027592628516e-01 4.138372321111727890e-03 3.378166826655841781e-01 3.399312127908118430e-01
2.443460952792061436e-01 4.403424331341730495e-03 3.654748917674280340e-01 3.813734885166727429e-01
2.617993877991494078e-01 4.664525010729913580e-03 3.937535310920812215e-01 4.264567259898727758e-01
2.792526803190927276e-01 4.921681985767308726e-03 4.226900872401187503e-01 4.756314869882080631e-01
2.967059728390360474e-01 5.174923821393491094e-03 4.523251451272143342e-01 5.293233571178558305e-01
3.141592653589793116e-01 5.424269960248300805e-03 4.827027446143357658e-01 5.880720958653693486e-01
3.316125578789225758e-01 5.669736116541219256e-03 5.138707930412372837e-01 6.524870884264406534e-01
3.490658503988658956e-01 5.911355561004446105e-03 5.458815328787839372e-01 7.232063532768939762e-01
3.665191429188092154e-01 6.149130554603835126e-03 5.787921083534884881e-01 8.011095312328849749e-01
3.839724354387524796e-01 6.383097490917661460e-03 6.126651678153195446e-01 8.869989916765250726e-01
4.014257279586957439e-01 6.613266152524451859e-03 6.475697598343894690e-01 9.820258810697990448e-01
4.188790204786390636e-01 6.839661438874051168e-03 6.835811496578021451e-01 1.087333029462930867e+00
4.363323129985823834e-01 7.062308012478887495e-03 7.207678567705861905e-01 1.203835421855988796e+00
4.537856055185257032e-01 7.281216408938031084e-03 7.591818214282237687e-01 1.332209459700082865e+00
4.712388980384689674e-01 7.496423327051411449e-03 7.988728244082716756e-01 1.473375667113214993e+00
4.886921905584122872e-01 7.707928837634349210e-03 8.398806475067688293e-01 1.628405658173300852e+00
5.061454830783556069e-01 7.915771818796530843e-03 8.822518243891340761e-01 1.798571589810465499e+00
5.235987755982988157e-01 8.119957197571964561e-03 9.260363408842035016e-01 1.985747152202862909e+00
5.410520681182421354e-01 8.320519468751442355e-03 9.712866634118056952e-01 2.191390959409910799e+00
5.585053606381854552e-01 8.517466627077007954e-03 1.018035981167854986e+00 2.416510498315202593e+00
5.759586531581287749e-01 8.710832547633551304e-03 1.066335823884219991e+00 2.663543422139505346e+00
5.934119456780720947e-01 8.900622890420572739e-03 1.116237948001989277e+00 2.934956742697261589e+00
6.108652381980153034e-01 9.086877388636028022e-03 1.167788410219366524e+00 3.232138439376996075e+00
6.283185307179586232e-01 9.269605340254259002e-03 1.221024375946869078e+00 3.557332704421739766e+00
6.457718232379019430e-01 9.448853868601688952e-03 1.275997741226732929e+00 3.913331427122102024e+00
6.632251157578451517e-01 9.624802128132721457e-03 1.332758610348936834e+00 4.299476292356505525e+00
6.806784082777884715e-01 9.797624701595623181e-03 1.391357714906784837e+00 4.717689048340240277e+00
6.981317007977317912e-01 9.967479513723087950e-03 1.451830526520269782e+00 5.168901182445226006e+00
7.155849933176750000e-01 1.013451765941462447e-02 1.514224220574087898e+00 5.656075883520057523e+00
7.330382858376184307e-01 1.029888001049143569e-02 1.578587111733571025e+00 6.181612138827873970e+00
7.504915783575616395e-01 1.046069949396035217e-02 1.644966383390018105e+00 6.747745579705976660e+00
7.679448708775049592e-01 1.062010142570853598e-02 1.713410965395798735e+00 7.357106406709030821e+00
7.853981633974482790e-01 1.077720411851423171e-02 1.783954939133640671e+00 8.010510076449474326e+00
8.028514559173914877e-01 1.093211947883244821e-02 1.856580858728801964e+00 8.703842659048355301e+00
8.203047484373349185e-01 1.108495348888064412e-02 1.931228837287351618e+00 9.432607885641225209e+00
8.377580409572781273e-01 1.123580668439551171e-02 2.007833168254742784e+00 1.019592034648900913e+01
8.552113334772214470e-01 1.138477454538089524e-02 2.086327380871255244e+00 1.099328566165213594e+01
8.726646259971647668e-01 1.153194789022660323e-02 2.166644772803442365e+00 1.182410154349039644e+01
8.901179185171079755e-01 1.167741323015647655e-02 2.248718411594743394e+00 1.268759298576211769e+01
9.075712110370514063e-01 1.182125305553023871e-02 2.332482139407231703e+00 1.358298361007582145e+01
9.250245035569946150e-01 1.196354616851132667e-02 2.417872840465805417e+00 1.450975754148420727e+01
9.424777960769379348e-01 1.210436791164618171e-02 2.504824439708783768e+00 1.546625442968749553e+01
9.599310885968812546e-01 1.224379044033375302e-02 2.593266151265122055e+00 1.645020349996360665e+01
9.773843811168245743e-01 1.238188293754066346e-02 2.683126625790399622e+00 1.745982125615917724e+01
9.948376736367677831e-01 1.251871182159296041e-02 2.774351403905438662e+00 1.849679568662475759e+01
1.012290966156711214e+00 1.265434095271081999e-02 2.866885387352216430e+00 1.955953877980179811e+01
1.029744258676654312e+00 1.278883179223631872e-02 2.960647983534144601e+00 2.064066536400217799e+01
1.047197551196597631e+00 1.292224359503949503e-02 3.055577614891500371e+00 2.174206857794827741e+01
1.064650843716540951e+00 1.305463353707937181e-02 3.151613799181898212e+00 2.286193036773347131e+01
1.082104136236484271e+00 1.318605688818239551e-02 3.248692709089147979e+00 2.399722303343015639e+01
1.099557428756427591e+00 1.331656712135098793e-02 3.346735024990495244e+00 2.514145018301790913e+01
1.117010721276370910e+00 1.344621606150774550e-02 3.445683675036538052e+00 2.629761166719297805e+01
1.134464013796314230e+00 1.357505398801778403e-02 3.545487988052463901e+00 2.746512634431644884e+01
1.151917306316257550e+00 1.370312975479311308e-02 3.646056781950239412e+00 2.862989168643993665e+01
1.169370598836200648e+00 1.383049089629240225e-02 3.747349762305002940e+00 2.980345664204862999e+01
1.186823891356144189e+00 1.395718371525699573e-02 3.849283729430320822e+00 3.097040261148698548e+01
1.204277183876087287e+00 1.408325339877760339e-02 3.951797847579423095e+00 3.213421816688411070e+01
1.221730476396030607e+00 1.420874407517051276e-02 4.054835195482455745e+00 3.329326741520328170e+01
1.239183768915973927e+00 1.433369893758272041e-02 4.158329719289244331e+00 3.444158521096618131e+01
1.256637061435917246e+00 1.445816028327687533e-02 4.262207435579631998e+00 3.557316308084202205e+01
1.274090353955860566e+00 1.458216962831065250e-02 4.366404957092988148e+00 3.668824912580558362e+01
1.291543646475803886e+00 1.470576775342846698e-02 4.470858479484278725e+00 3.778349516628667715e+01
1.308996938995747206e+00 1.482899478811487703e-02 4.575503715437432284e+00 3.885548874278687492e+01
1.326450231515690303e+00 1.495189028236665156e-02 4.680276218645960107e+00 3.990091403434850292e+01
1.343903524035633845e+00 1.507449325282211178e-02 4.785111551726599188e+00 4.091652604253300751e+01
1.361356816555576943e+00 1.519684227840167878e-02 4.889945156157132544e+00 4.189903219574125615e+01
1.378810109075520263e+00 1.531897552647866478e-02 4.994708887674299547e+00 4.284372594306844917e+01
1.396263401595463582e+00 1.544093084529843569e-02 5.099335114350219911e+00 4.374751316577998494e+01
1.413716694115406902e+00 1.556274580427405990e-02 5.203759299667325422e+00 4.460850539405513615e+01
1.431169986635350000e+00 1.568445775396636044e-02 5.307917978951236293e+00 4.542411224473622866e+01
1.448623279155293542e+00 1.580610389956014009e-02 5.411748161048454797e+00 4.619158250211575734e+01
1.466076571675236861e+00 1.592772132851019359e-02 5.515186424297426449e+00 4.690785770992698644e+01
1.483529864195180181e+00 1.604934710187632188e-02 5.618167935247270428e+00 4.756947534467668959e+01
1.500983156715123279e+00 1.617101828137175804e-02 5.720620530592183783e+00 4.817019303774809202e+01
1.518436449235066599e+00 1.629277200179787832e-02 5.822479588082848601e+00 4.871081401250705056e+01
1.535889741755009918e+00 1.641464552947455302e-02 5.923681063324989005e+00 4.918912859097967782e+01
1.553343034274953460e+00 1.653667630023572532e-02 6.024160800700037122e+00 4.960274292981771538e+01
1.570796326794896558e+00 1.665890200884129896e-02 6.123854165744182509e+00 4.994919937774935192e+01
1.588249619314839878e+00 1.678136063305852438e-02 6.222696007297047416e+00 5.022616714147169859e+01
1.605702911834782975e+00 1.690409052257674238e-02 6.320620861294548476e+00 5.043155155158487446e+01
1.623156204354726295e+00 1.702713044484101615e-02 6.417563405964611611e+00 5.056366386670998025e+01
1.640609496874669837e+00 1.715051964596844836e-02 6.513459298545246412e+00 5.062144721859085195e+01
1.658062789394613157e+00 1.727429793449656442e-02 6.608246326571682872e+00 5.060467689534028324e+01
1.675516081914556255e+00 1.739850571626389703e-02 6.701864043773110957e+00 5.051319682591572047e+01
1.692969374434499574e+00 1.752318410231937934e-02 6.794230247325440786e+00 5.033408547064304628e+01
1.710422666954442894e+00 1.764837494431814244e-02 6.885286095051402988e+00 5.007918728007921061e+01
1.727875959474386436e+00 1.777412093787520894e-02 6.975001028332069808e+00 4.976395145388108432e+01
1.745329251994329534e+00 1.790046568566540028e-02 7.063357710677500734e+00 4.939618499780070948e+01
1.762782544514272853e+00 1.802745378039997959e-02 7.150378195593133590e+00 4.899903248499163766e+01
1.780235837034215951e+00 1.815513090501756285e-02 7.236054100898907215e+00 4.855650436935810177e+01
1.797689129554159271e+00 1.828354389749448777e-02 7.320403040402484685e+00 4.808456070421909345e+01
1.815142422074102813e+00 1.841274088307168211e-02 7.403429267223166299e+00 4.757686836463221169e+01
1.832595714594046132e+00 1.854277133347860887e-02 7.485133570182489038e+00 4.703264650666909574e+01
1.850049007113989230e+00 1.867368622096033520e-02 7.565526542543141275e+00 4.645882358592270833e+01
1.867502299633932550e+00 1.880553808596896123e-02 7.644615894383946397e+00 4.585507502068207941e+01
1.884955592153875870e+00 1.893838120589589127e-02 7.722408284849651139e+00 4.522210867683980950e+01
1.902408884673818967e+00 1.907227168006601567e-02 7.798909532334140415e+00 4.456077341873790942e+01
1.919862177193762509e+00 1.920726761380065969e-02 7.874125251539791925e+00 4.387228396628086102e+01
1.937315469713705829e+00 1.934342922342556850e-02 7.948061633231056078e+00 4.315834105068936566e+01
1.954768762233649149e+00 1.948081904195676090e-02 8.020725128285507211e+00 4.242045931227195865e+01
1.972222054753592246e+00 1.961950204484234558e-02 8.092125958923777063e+00 4.166224433237513125e+01
1.989675347273535566e+00 1.975954588424527064e-02 8.162271890159123799e+00 4.088363795025642133e+01
2.007128639793478886e+00 1.990102104111993869e-02 8.231161363213548299e+00 4.008056124228674122e+01
2.024581932313422428e+00 2.004400108795376806e-02 8.298803679672657196e+00 3.926074422012458598e+01
2.042035224833365525e+00 2.018856288651645417e-02 8.365210449330643172e+00 3.842692944971812352e+01
2.059488517353308623e+00 2.033478686591860471e-02 8.430385780553399044e+00 3.757613408072162287e+01
2.076941809873252165e+00 2.048275729739872097e-02 8.494333976510541007e+00 3.670985670730286188e+01
2.094395102393195263e+00 2.063256257702026850e-02 8.557062001505979509e+00 3.583102013987966217e+01
2.111848394913138804e+00 2.078429559006493219e-02 8.618576941144011627e+00 3.494106059464732539e+01
2.129301687433081902e+00 2.093805403954934058e-02 8.678885036138364484e+00 3.404086246704666507e+01
2.146754979953025444e+00 2.109394085363991422e-02 8.737992110418140612e+00 3.313154815175640522e+01
2.164208272472968542e+00 2.125206463220954967e-02 8.795904550649080278e+00 3.221478143100378588e+01
2.181661564992911639e+00 2.141254010206391362e-02 8.852629441948563382e+00 3.129228680650407668e+01
2.199114857512855181e+00 2.157548864966444407e-02 8.908174567885595252e+00 3.036576180201970132e+01
2.216568150032798723e+00 2.174103891486691212e-02 8.962548410480820849e+00 2.943687199338300431e+01
2.234021442552741821e+00 2.190932742371080183e-02 9.015760150206512336e+00 2.850725137668704789e+01
2.251474735072684918e+00 2.208049929750955168e-02 9.067811265519834407e+00 2.757402132408337891e+01
2.268928027592628460e+00 2.225470905021991255e-02 9.118706072666194373e+00 2.664000033134108492e+01
2.286381320112572002e+00 2.243212147821751351e-02 9.168455361137867854e+00 2.570981840162160381e+01
2.303834612632515100e+00 2.261291264634025799e-02 9.217063052987152005e+00 2.478108666961327700e+01
2.321287905152458197e+00 2.279727099471232782e-02 9.264536478547940490e+00 2.385675976994133407e+01
2.338741197672401295e+00 2.298539858315969825e-02 9.310882137339069331e+00 2.293756966444347611e+01
2.356194490192344837e+00 2.317751249633210123e-02 9.356106780432231318e+00 2.202477597272418919e+01
2.373647782712288379e+00 2.337384642349591563e-02 9.400215785225377374e+00 2.111882388931945442e+01
2.391101075232231477e+00 2.357465248049595702e-02 9.443216532100572991e+00 2.022176869816415135e+01
2.408554367752174574e+00 2.378020317393839470e-02 9.485115822638967131e+00 1.933438496301464582e+01
2.426007660272118116e+00 2.399079392806281047e-02 9.525919945256699606e+00 1.845744876640323895e+01
2.443460952792061214e+00 2.420674615489122952e-02 9.565635670972220339e+00 1.759213915885068857e+01
2.460914245312004311e+00 2.442840303836845209e-02 9.604317424093814282e+00 1.676067215563834978e+01
2.478367537831947853e+00 2.465615416855165137e-02 9.642028586193212902e+00 1.596532595418900335e+01
2.495820830351891395e+00 2.488995714913385532e-02 9.678827636579288907e+00 1.523383769487060135e+01
2.513274122871834493e+00 2.512976687421624583e-02 9.714768346333586990e+00 1.455969599839438899e+01
2.530727415391777591e+00 2.537539119199419546e-02 9.749900302146201625e+00 1.394540531210992107e+01
2.548180707911721132e+00 2.562667922916989777e-02 9.784269339613999250e+00 1.338209026214391173e+01
2.565634000431664674e+00 2.588355581590795831e-02 9.817917921076080745e+00 1.286061198299183594e+01
2.583087292951607772e+00 2.614576877528329568e-02 9.850885467388998507e+00 1.238533456329002824e+01
2.600540585471550870e+00 2.641323628543798194e-02 9.883208650082274005e+00 1.194375939745442139e+01
2.617993877991494411e+00 2.668583464064519170e-02 9.914921649757387101e+00 1.153462231342232513e+01
2.635447170511437509e+00 2.696334471369390973e-02 9.946056385498522445e+00 1.115879628537171619e+01
2.652900463031380607e+00 2.724566246893476984e-02 9.976642717992421083e+00 1.080870422354461269e+01
2.670353755551324149e+00 2.753266885267456957e-02 1.000670863187224668e+01 1.048272292853026499e+01
2.687807048071267690e+00 2.782418660283565714e-02 1.003628039744677380e+01 1.018087341129355039e+01
2.705260340591210788e+00 2.812005186360600623e-02 1.006538271674942919e+01 9.900654810354160063e+00
2.722713633111153886e+00 2.842013590103836806e-02 1.009403885424788783e+01 9.639172006518707647e+00
2.740166925631096984e+00 2.872430110072283355e-02 1.012227075436919854e+01 9.395254198530080814e+00
2.757620218151040525e+00 2.903240568830646462e-02 1.015009914813359515e+01 9.167697178973796213e+00
2.775073510670984067e+00 2.934430379411321135e-02 1.017754364940867440e+01 8.955412183119598524e+00
2.792526803190927165e+00 2.965984693870005531e-02 1.020462284204553960e+01 8.757374465799856011e+00
2.809980095710870263e+00 2.997888524341894151e-02 1.023135435912983127e+01 8.572626540487135571e+00
2.827433388230813804e+00 3.030126878139330696e-02 1.025775495516967695e+01 8.400269025793070554e+00
2.844886680750756902e+00 3.062684875787071576e-02 1.028384057195654933e+01 8.239460152303417217e+00
2.862339973270700000e+00 3.095547954038919622e-02 1.030962639876015530e+01 8.089389517652797679e+00
2.879793265790643542e+00 3.128701700706600086e-02 1.033512692743819805e+01 7.949364011436751198e+00
2.897246558310587083e+00 3.162133009458311522e-02 1.036035600299286408e+01 7.818485549398568324e+00
2.914699850830530625e+00 3.195827721821995621e-02 1.038532687004480159e+01 7.696478122849737424e+00
2.932153143350473723e+00 3.229768708603991678e-02 1.041005221563018424e+01 7.583519602614181565e+00
2.949606435870416821e+00 3.263942474015436856e-02 1.043454420868144084e+01 7.478332609096806749e+00
2.967059728390360362e+00 3.298335102786335155e-02 1.045881453652040172e+01 7.380618076598743471e+00
2.984513020910303460e+00 3.332930696367254059e-02 1.048287443865714330e+01 7.290435197069333739e+00
3.001966313430246558e+00 3.367714745751915206e-02 1.050673473814241099e+01 7.207149308352101436e+00
3.019419605950190100e+00 3.402673490133285850e-02 1.053040587070203848e+01 7.130308530329065420e+00
3.036872898470133197e+00 3.437792653028829554e-02 1.055389791185633364e+01 7.059752671809937929e+00
3.054326190990076295e+00 3.473057644443674347e-02 1.057722060220653049e+01 6.995301316510280643e+00
3.071779483510019837e+00 3.508453897059776033e-02 1.060038337105267203e+01 6.936729499791066011e+00
3.089232776029963379e+00 3.543966881156808413e-02 1.062339535849273453e+01 6.883832681942994469e+00
3.106686068549906921e+00 3.579582056274557833e-02 1.064626543622115307e+01 6.836437480337031580e+00
3.124139361069850018e+00 3.615284848306135612e-02 1.066900222716353142e+01 6.794395043061035366e+00
3.141592653589793116e+00 3.651060649360483856e-02 1.069161412385880361e+01 6.757575426672843832e+00
3.159045946109736214e+00 3.686894817762373378e-02 1.071410930577899201e+01 6.725866643345247198e+00
3.176499238629679756e+00 3.722772678052403694e-02 1.073649575569635317e+01 6.699173879932900810e+00
3.193952531149622853e+00 3.758679520987005113e-02 1.075878127532354789e+01 6.677418889558746073e+00
3.211405823669565951e+00 3.794600697117861410e-02 1.078097350032724755e+01 6.660522161262321106e+00
3.228859116189509493e+00 3.830521863990359738e-02 1.080307991441097748e+01 6.648374169338272743e+00
3.246312408709452590e+00 3.866428571245999340e-02 1.082510786272273684e+01 6.640957489406800640e+00
3.263765701229396576e+00 3.902306133503136848e-02 1.084706456477294267e+01 6.638292843340766858e+00
3.281218993749339674e+00 3.938139630356986276e-02 1.086895712714406059e+01 6.640415887556287977e+00
3.298672286269282772e+00 3.973913906379619027e-02 1.089079255547152236e+01 6.647377577223351430e+00
3.316125578789226314e+00 4.009613571119964581e-02 1.091257776591142381e+01 6.659244696029533728e+00
3.333578871309169411e+00 4.045223493282170540e-02 1.093431959638069451e+01 6.676007936171166612e+00
3.351032163829112509e+00 4.080732290139597179e-02 1.095602481780912285e+01 6.697014984785842451e+00
3.368485456349056051e+00 4.116133829966247409e-02 1.097770014478089351e+01 6.721324586481658869e+00
3.385938748868999149e+00 4.151426960837178298e-02 1.099935224586398519e+01 6.748029454994040499e+00
3.403392041388942246e+00 4.186612177614902619e-02 1.102098775401583985e+01 6.776842442092372742e+00
3.420845333908885788e+00 4.221689417137761136e-02 1.104261327701654238e+01 6.807898530737088727e+00
3.438298626428828886e+00 4.256658182425190895e-02 1.106423540742256151e+01 6.841315066625245578e+00
