# angles(rad), pulling distance(m),                                     elastic band force(n), cable force(n)
0.000000000000000000e+00 3.183347457943060100e-04 2.143095979113960464e-02 1.442776962418714469e-02
1.745329251994329547e-02 6.313326693677554164e-04 4.318456254117947896e-02 3.001361183901344112e-02
3.490658503988659095e-02 9.391727837784702394e-04 6.527778390994072588e-02 4.684888235391989481e-02
5.235987755982988295e-02 1.241967353220676954e-03 8.772824158991515686e-02 6.504539294681377370e-02
6.981317007977318190e-02 1.539736645928999840e-03 1.105547567645295270e-01 8.474949884719260029e-02
8.726646259971647390e-02 1.832522145754777662e-03 1.337773439546093290e-01 1.061068951806638655e-01
1.047197551196597659e-01 2.120389034805128699e-03 1.574173142954078120e-01 1.292729654788706828e-01
1.221730476396030718e-01 2.403391145014255759e-03 1.814974169521380298e-01 1.544326446509266260e-01
1.396263401595463638e-01 2.681554151599418838e-03 2.060419695283897679e-01 1.818073515989157840e-01
1.570796326794896558e-01 2.954924886144306203e-03 2.310770165508136131e-01 2.116182620931258973e-01
1.745329251994329478e-01 3.223568174654789769e-03 2.566305041711902102e-01 2.441082540237591303e-01
1.919862177193762398e-01 3.487536654566293377e-03 2.827324777723186355e-01 2.795741246632481025e-01
2.094395102393195318e-01 3.746856542540380908e-03 3.094153056848082950e-01 3.183741678888555859e-01
2.268928027592628516e-01 4.001574802936173209e-03 3.367139355653250843e-01 3.608625894479375318e-01
2.443460952792061436e-01 4.251755819818543204e-03 3.646661472372568213e-01 4.074340037540208903e-01
2.617993877991494078e-01 4.497452015225372919e-03 3.933131528928112686e-01 4.585843951172187682e-01
2.792526803190927276e-01 4.738690191967382358e-03 4.226974027003477241e-01 5.148706660648918465e-01
2.967059728390360474e-01 4.975517292202748590e-03 4.528557178652047321e-01 5.766808549365036729e-01
3.141592653589793116e-01 5.207999093515031271e-03 4.838162541068362077e-01 6.443175588373983853e-01
3.316125578789225758e-01 5.436187998696666475e-03 5.156133058728334939e-01 7.184829150665908992e-01
3.490658503988658956e-01 5.660105544590527532e-03 5.482812427236710695e-01 7.999023454055600446e-01
3.665191429188092154e-01 5.879804103030637601e-03 5.818472333282421749e-01 8.889579843335871923e-01
3.839724354387524796e-01 6.095347322103032706e-03 6.163491716431876988e-01 9.865882671706127649e-01
4.014257279586957439e-01 6.306782036954955081e-03 6.518142676575799932e-01 1.093323563361703332e+00
4.188790204786390636e-01 6.514137655534747717e-03 6.882781442420632390e-01 1.210350097061973829e+00
4.363323129985823834e-01 6.717473972704760335e-03 7.257715174148358095e-01 1.338256870161163015e+00
4.537856055185257032e-01 6.916848527027885489e-03 7.643265517972971379e-01 1.478054036735965804e+00
4.712388980384689674e-01 7.112287438596756259e-03 8.039770108197308307e-01 1.631100852260577883e+00
4.886921905584122872e-01 7.303846242647380610e-03 8.447522023072094877e-01 1.798138852414360889e+00
5.061454830783556069e-01 7.491582323772502834e-03 8.866887627648040171e-01 1.980688884305252806e+00
5.235987755982988157e-01 7.675533003537416028e-03 9.298128345460785482e-01 2.179786205267600252e+00
5.410520681182421354e-01 7.855735311482770974e-03 9.741649655020667709e-01 2.397654758993735147e+00
5.585053606381854552e-01 8.032276810259982025e-03 1.019766850504440603e+00 2.634128007750863976e+00
5.759586531581287749e-01 8.205310320804196089e-03 1.066662521993195112e+00 2.890876747714004491e+00
5.934119456780720947e-01 8.375016549291970300e-03 1.114872814485142971e+00 3.167140355224010939e+00
6.108652381980153034e-01 8.541575822514342262e-03 1.164436018366299841e+00 3.465023511948154944e+00
6.283185307179586232e-01 8.705150987906206533e-03 1.215387649991197971e+00 3.785781519795540451e+00
6.457718232379019430e-01 8.865894273431828426e-03 1.267750222289691919e+00 4.129731606145056411e+00
6.632251157578451517e-01 9.023949671933579816e-03 1.321561049335008065e+00 4.499327054292555417e+00
6.806784082777884715e-01 9.179452425861182527e-03 1.376847572826314314e+00 4.895161902692070299e+00
6.981317007977317912e-01 9.332529419470915466e-03 1.433583387985017499e+00 5.313373368350069903e+00
7.155849933176750000e-01 9.483300390820334491e-03 1.491717888244378010e+00 5.751788503110266682e+00
7.330382858376184307e-01 9.631878347128733711e-03 1.551210053143143863e+00 6.211207003188442322e+00
7.504915783575616395e-01 9.778370223779744505e-03 1.612024354588823316e+00 6.692120906559832605e+00
7.679448708775049592e-01 9.922877137928323363e-03 1.674125285704273658e+00 7.194447383968164189e+00
7.853981633974482790e-01 1.006549506246133194e-02 1.737474131748255379e+00 7.717612048971179917e+00
8.028514559173914877e-01 1.020631506359208525e-02 1.802028730377086108e+00 8.260846504261980527e+00
8.203047484373349185e-01 1.034542375452620830e-02 1.867744824277732141e+00 8.823380727003373281e+00
8.377580409572781273e-01 1.048290363727451616e-02 1.934580728733426014e+00 9.404972579455170845e+00
8.552113334772214470e-01 1.061883328711049797e-02 2.002495712389816163e+00 1.000513602021691106e+01
8.726646259971647668e-01 1.075328782046849202e-02 2.071449254288230790e+00 1.062320171575761130e+01
8.901179185171079755e-01 1.088633898597122368e-02 2.141401043865676090e+00 1.125843841017228542e+01
9.075712110370514063e-01 1.101805546423286625e-02 2.212310983054404101e+00 1.191003884596173634e+01
9.250245035569946150e-01 1.114850315367966853e-02 2.284139586775006503e+00 1.257719151000452129e+01
9.424777960769379348e-01 1.127774521781776083e-02 2.356848855514175778e+00 1.325920921768038419e+01
9.599310885968812546e-01 1.140584240213020004e-02 2.430401244042334152e+00 1.395517142243394737e+01
9.773843811168245743e-01 1.153285319920935477e-02 2.504752386828662303e+00 1.466262763798208724e+01
9.948376736367677831e-01 1.165883389080698239e-02 2.579853518848329141e+00 1.537933450383416201e+01
1.012290966156711214e+00 1.178383882867603885e-02 2.655671756294354147e+00 1.610723186057996870e+01
1.029744258676654312e+00 1.190792055323252815e-02 2.732173291465427756e+00 1.684498276419062890e+01
1.047197551196597631e+00 1.203112982009736653e-02 2.809306263636923706e+00 1.758716266788821159e+01
1.064650843716540951e+00 1.215351582905499148e-02 2.887031524953254991e+00 1.833504349203609607e+01
1.082104136236484271e+00 1.227512634263050462e-02 2.965312310626671444e+00 1.908773926020566947e+01
1.099557428756427591e+00 1.239600769521352445e-02 3.044108582934281770e+00 1.984296202096914996e+01
1.117010721276370910e+00 1.251620495325040175e-02 3.123380121114250674e+00 2.059906777952451762e+01
1.134464013796314230e+00 1.263576206190061141e-02 3.203086075476038630e+00 2.135423275379824304e+01
1.151917306316257550e+00 1.275472185076475216e-02 3.283185565046213394e+00 2.210675476439407561e+01
1.169370598836200648e+00 1.287312611044877896e-02 3.363637911796071300e+00 2.285496859175001561e+01
1.186823891356144189e+00 1.299101576804479602e-02 3.444402851530328213e+00 2.359723443066020820e+01
1.204277183876087287e+00 1.310843091161351809e-02 3.525440796305586044e+00 2.433199567585912959e+01
1.221730476396030607e+00 1.322541080619770576e-02 3.606712561572936959e+00 2.505763043580197547e+01
1.239183768915973927e+00 1.334199404102351903e-02 3.688180474544918042e+00 2.577286231370375802e+01
1.256637061435917246e+00 1.345821860874353917e-02 3.769797559902338335e+00 2.647287877791293553e+01
1.274090353955860566e+00 1.357412190642995516e-02 3.851521806541535753e+00 2.715735654956602474e+01
1.291543646475803886e+00 1.368974079523433904e-02 3.933316327087145403e+00 2.782622514843895445e+01
1.308996938995747206e+00 1.380511173953930144e-02 4.015145747424454292e+00 2.847831844151937730e+01
1.326450231515690303e+00 1.392027082676021953e-02 4.096963595994378871e+00 2.910797186595573294e+01
1.343903524035633845e+00 1.403525377349239094e-02 4.178726761719860683e+00 2.971448710006073668e+01
1.361356816555576943e+00 1.415009603102532036e-02 4.260401293914890530e+00 3.029949864437513085e+01
1.378810109075520263e+00 1.426483287409931362e-02 4.341947825818113671e+00 3.085938024910351629e+01
1.396263401595463582e+00 1.437949940366964156e-02 4.423316366545120282e+00 3.138830478853169126e+01
1.413716694115406902e+00 1.449413057128423610e-02 4.504474308974256935e+00 3.189131492321239136e+01
1.431169986635350000e+00 1.460876130807481355e-02 4.585384254949308236e+00 3.236507089896822720e+01
1.448623279155293542e+00 1.472342656726177874e-02 4.665994397448607778e+00 3.280212995166916556e+01
1.466076571675236861e+00 1.483816132461474556e-02 4.746272314068031406e+00 3.320884288879163648e+01
1.483529864195180181e+00 1.495300063874644564e-02 4.826182066245042535e+00 3.358249008980466499e+01
1.500983156715123279e+00 1.506797977261787984e-02 4.905670318935618113e+00 3.391425459546685772e+01
1.518436449235066599e+00 1.518313420813363103e-02 4.984703857962838214e+00 3.421134280524996996e+01
1.535889741755009918e+00 1.529849965299221251e-02 5.063248925468727180e+00 3.447247389697717068e+01
1.553343034274953460e+00 1.541411214982102082e-02 5.141253545012604675e+00 3.468842363565197218e+01
1.570796326794896558e+00 1.553000816371604038e-02 5.218693029371612724e+00 3.487030171620556018e+01
1.588249619314839878e+00 1.564622458470720998e-02 5.295569926593528542e+00 3.503007419314111104e+01
1.605702911834782975e+00 1.576279876278567985e-02 5.371894273676847575e+00 3.517128147907739333e+01
1.623156204354726295e+00 1.587976865687241307e-02 5.447672424582432171e+00 3.529237555503859625e+01
1.640609496874669837e+00 1.599717287441349348e-02 5.522913701592932156e+00 3.539490219601630372e+01
1.658062789394613157e+00 1.611505067515477119e-02 5.597628069351619828e+00 3.547938963230404852e+01
1.675516081914556255e+00 1.623344208284255991e-02 5.671825277294478163e+00 3.554595791484881318e+01
1.692969374434499574e+00 1.635238801280005511e-02 5.745514880665018254e+00 3.559472046391461930e+01
1.710422666954442894e+00 1.647193027889460801e-02 5.818706277997290677e+00 3.562582984798289942e+01
1.727875959474386436e+00 1.659211164356728593e-02 5.891408400182935878e+00 3.563929353957561119e+01
1.745329251994329534e+00 1.671297600830656815e-02 5.963629185120027820e+00 3.563481939049481895e+01
1.762782544514272853e+00 1.683456845897074797e-02 6.035378150013719356e+00 3.561340631265482415e+01
1.780235837034215951e+00 1.695693528484600032e-02 6.106664662311040992e+00 3.557523229288099742e+01
1.797689129554159271e+00 1.708012417459625273e-02 6.177498074665021655e+00 3.552051401110794870e+01
1.815142422074102813e+00 1.720418433150090742e-02 6.247887691832870516e+00 3.544944917922566674e+01
1.832595714594046132e+00 1.732916648394320497e-02 6.317842805676018969e+00 3.536228206009059249e+01
1.850049007113989230e+00 1.745512307598341001e-02 6.387372702808567837e+00 3.525923969360562893e+01
1.867502299633932550e+00 1.758210844907955733e-02 6.456486686743880377e+00 3.514054463645238258e+01
1.884955592153875870e+00 1.771017885766854039e-02 6.525194065677713873e+00 3.500644576891711068e+01
1.902408884673818967e+00 1.783939268202389475e-02 6.593504223082184978e+00 3.485720769993761792e+01
1.919862177193762509e+00 1.796981065350324036e-02 6.661426434733661139e+00 3.469298065814243159e+01
1.937315469713705829e+00 1.810149588362229903e-02 6.728968747381941284e+00 3.451337029409212676e+01
1.954768762233649149e+00 1.823451415068889914e-02 6.796140419690102519e+00 3.431920497078105114e+01
1.972222054753592246e+00 1.836893412757198418e-02 6.862950895341166202e+00 3.411077909100082906e+01
1.989675347273535566e+00 1.850482745292802295e-02 6.929409639535506926e+00 3.388833568132425711e+01
2.007128639793478886e+00 1.864226914110101926e-02 6.995526117013600498e+00 3.365205645471885276e+01
2.024581932313422428e+00 1.878133774390059602e-02 7.061310156159214202e+00 3.340232765562219441e+01
2.042035224833365525e+00 1.892211559287269515e-02 7.126771208749429043e+00 3.313915848982971823e+01
2.059488517353308623e+00 1.906468925139659723e-02 7.191916574247064986e+00 3.286161263648048703e+01
2.076941809873252165e+00 1.920914964674947517e-02 7.256755681081486387e+00 3.257097253040011964e+01
2.094395102393195263e+00 1.935559262851154275e-02 7.321298783797860033e+00 3.226780373727144990e+01
2.111848394913138804e+00 1.950411922627199451e-02 7.385555389001447146e+00 3.195190114067611020e+01
2.129301687433081902e+00 1.965483616195084354e-02 7.449534151240223778e+00 3.162298729768628291e+01
2.146754979953025444e+00 1.980785632628816531e-02 7.513243612999575660e+00 3.128115230590867313e+01
2.164208272472968542e+00 1.996329927218180172e-02 7.576693926517648059e+00 3.092733493335660810e+01
2.181661564992911639e+00 2.012129187138636532e-02 7.639894809338720449e+00 3.056143762690813404e+01
2.199114857512855181e+00 2.028196890312654668e-02 7.702853941453355446e+00 3.018259633672421316e+01
2.216568150032798723e+00 2.044547385507126600e-02 7.765581206090454991e+00 2.979198254130025703e+01
2.234021442552741821e+00 2.061195967064269330e-02 7.828086314371980770e+00 2.938961382611195816e+01
2.251474735072684918e+00 2.078158961240954630e-02 7.890377683731145453e+00 2.897498080593248204e+01
2.268928027592628460e+00 2.095453855229368126e-02 7.952465147917539667e+00 2.854879569632860026e+01
2.286381320112572002e+00 2.113099385420388887e-02 8.014358045622367754e+00 2.811090612284284163e+01
2.303834612632515100e+00 2.131115598500330291e-02 8.076064675372464308e+00 2.766101458446277306e+01
2.321287905152458197e+00 2.149524221213694117e-02 8.137594886730793675e+00 2.719964122929861716e+01
2.338741197672401295e+00 2.168348731125039827e-02 8.198958519515993970e+00 2.672674519454257336e+01
2.356194490192344837e+00 2.187613401795389378e-02 8.260163966522522827e+00 2.624322193559975958e+01
2.373647782712288379e+00 2.207348018708999576e-02 8.321220075028199048e+00 2.574467586701103983e+01
2.391101075232231477e+00 2.227578250995987733e-02 8.382136380498197425e+00 2.523988716501481022e+01
2.408554367752174574e+00 2.248307446363613168e-02 8.442922346269481793e+00 2.475789241445765043e+01
2.426007660272118116e+00 2.269528088279991127e-02 8.503587371265343364e+00 2.430983673656739086e+01
2.443460952792061214e+00 2.291234049248606561e-02 8.564140845385621148e+00 2.389152370601274100e+01
2.460914245312004311e+00 2.313420095003006216e-02 8.624591898725356032e+00 2.349971106500176177e+01
2.478367537831947853e+00 2.336080348993851280e-02 8.684949382600228418e+00 2.313308988178848580e+01
2.495820830351891395e+00 2.359209269978499932e-02 8.745222330850928927e+00 2.278966378665502290e+01
2.513274122871834493e+00 2.382800360811273763e-02 8.805420016227934354e+00 2.246890182004174008e+01
2.530727415391777591e+00 2.406843828798565024e-02 8.865551731153161086e+00 2.217237669850032589e+01
2.548180707911721132e+00 2.431333599757258893e-02 8.925626745737332612e+00 2.189514788960015323e+01
2.565634000431664674e+00 2.456264373786941693e-02 8.985654305676719744e+00 2.163538531882065286e+01
2.583087292951607772e+00 2.481630347301934728e-02 9.045643662033318932e+00 2.139252967349313650e+01
2.600540585471550870e+00 2.507426002322198436e-02 9.105604140312930639e+00 2.116543963892694435e+01
2.617993877991494411e+00 2.533644694526467414e-02 9.165545067853884120e+00 2.095418293579602675e+01
2.635447170511437509e+00 2.560277090974732300e-02 9.225475557610923971e+00 2.075995186851611152e+01
2.652900463031380607e+00 2.587317149306671629e-02 9.285404547357527960e+00 2.057927934476309062e+01
2.670353755551324149e+00 2.614760008718902337e-02 9.345341073122257924e+00 2.041067468937785634e+01
2.687807048071267690e+00 2.642599998486799134e-02 9.405294329811448861e+00 2.025424685474587605e+01
2.705260340591210788e+00 2.670830234837754877e-02 9.465273656243830658e+00 2.011037850841287522e+01
2.722713633111153886e+00 2.699442042817148599e-02 9.525288516805280992e+00 1.997982310504021797e+01
2.740166925631096984e+00 2.728429760945605409e-02 9.585348290325175213e+00 1.985992291200993520e+01
2.757620218151040525e+00 2.757788687958804413e-02 9.645462093464884035e+00 1.974954361300020267e+01
2.775073510670984067e+00 2.787511892727028220e-02 9.705638939763442608e+00 1.964979036620727726e+01
2.792526803190927165e+00 2.817590810197788745e-02 9.765888098282761831e+00 1.956142672645497882e+01
2.809980095710870263e+00 2.848021002297132856e-02 9.826219077178857120e+00 1.948148778812578641e+01
2.827433388230813804e+00 2.878797494707797597e-02 9.886641069943832960e+00 1.940996222789332037e+01
2.844886680750756902e+00 2.909909806087292161e-02 9.947162672608115486e+00 1.934983934704865760e+01
2.862339973270700000e+00 2.941352653528184202e-02 1.000779249116746428e+01 1.929757297139593319e+01
2.879793265790643542e+00 2.973122051007116504e-02 1.006854058204640623e+01 1.925263514053406766e+01
2.897246558310587083e+00 3.005209456541994839e-02 1.012941850922929454e+01 1.921806989784721509e+01
2.914699850830530625e+00 3.037607498443014795e-02 1.019043545445033594e+01 1.919218586735574306e+01
2.932153143350473723e+00 3.070310643189336566e-02 1.025159407779852927e+01 1.917165415699563980e+01
2.949606435870416821e+00 3.103312908973108672e-02 1.031289050554969400e+01 1.915454387043707385e+01
2.967059728390360362e+00 3.136607915211125919e-02 1.037431714741941846e+01 1.913979109965815084e+01
2.984513020910303460e+00 3.170189144397002334e-02 1.043586486277445324e+01 1.912686508592102186e+01
3.001966313430246558e+00 3.204049933575994769e-02 1.049752301625436957e+01 1.911526284498819095e+01
3.019419605950190100e+00 3.238183509298275115e-02 1.055927980305992264e+01 1.910456721333439845e+01
3.036872898470133197e+00 3.272583424696585280e-02 1.062112335532500396e+01 1.909446548729569670e+01
3.054326190990076295e+00 3.307243769698694352e-02 1.068304197712100034e+01 1.908461199021152765e+01
3.071779483510019837e+00 3.342158544122898756e-02 1.074502414445678866e+01 1.907501610799785752e+01
3.089232776029963379e+00 3.377321102079851312e-02 1.080705850527873757e+01 1.906598966892892122e+01
3.106686068549906921e+00 3.412724360690019137e-02 1.086913387947070575e+01 1.905772460495933629e+01
3.124139361069850018e+00 3.448361453524812631e-02 1.093123925885404191e+01 1.905006012831494644e+01
3.141592653589793116e+00 3.484225846224477119e-02 1.099336380718759010e+01 1.904278059040654014e+01
3.159045946109736214e+00 3.520311229265152275e-02 1.105549677700371092e+01 1.903570891220723027e+01
3.176499238629679756e+00 3.556611304391045503e-02 1.111762721683595601e+01 1.902869529821582262e+01
3.193952531149622853e+00 3.593119759319819001e-02 1.117974404758925999e+01 1.902162855766452410e+01
3.211405823669565951e+00 3.629830267269058136e-02 1.124183610242348408e+01 1.901441147788617059e+01
3.228859116189509493e+00 3.666736477611545059e-02 1.130389212675341781e+01 1.900695298517827680e+01
3.246312408709452590e+00 3.703832007316638919e-02 1.136590077824877376e+01 1.899916744395319412e+01
3.263765701229396576e+00 3.741110440634345946e-02 1.142785062690285436e+01 1.899097021445415479e+01
3.281218993749339674e+00 3.778565329095317366e-02 1.148973029248221600e+01 1.898231972674778234e+01
3.298672286269282772e+00 3.816190191510852175e-02 1.155152886991543681e+01 1.897330662516416666e+01
3.316125578789226314e+00 3.853978513972895065e-02 1.161323599090124858e+01 1.896404263637696630e+01
3.333578871309169411e+00 3.891923749854036413e-02 1.167484112335693958e+01 1.895442516305437763e+01
3.351032163829112509e+00 3.930019319807513678e-02 1.173633273989985604e+01 1.894409437484011249e+01
3.368485456349056051e+00 3.968258623188679335e-02 1.179769967198765634e+01 1.893310208469239342e+01
3.385938748868999149e+00 4.006635081257742953e-02 1.185893284705567829e+01 1.892202010505654997e+01
3.403392041388942246e+00 4.045142138668682968e-02 1.192002100346838489e+01 1.891009483616709375e+01
3.420845333908885788e+00 4.083773260986110765e-02 1.198094967235290831e+01 1.889624923425063585e+01
3.438298626428828886e+00 4.122521934685268591e-02 1.204170855907629090e+01 1.888169933188724769e+01
