# angles(rad), pulling distance(m),                                     elastic band force(n), cable force(n)
0.000000000000000000e+00 3.372387758119844373e-04 2.466267085302773637e-02 1.803610311834042204e-02
1.745329251994329547e-02 6.634426752315787483e-04 4.975270165159465657e-02 3.826737874597702788e-02
3.490658503988659095e-02 9.792331973313178790e-04 7.529344748248235908e-02 6.089640664623865302e-02
5.235987755982988295e-02 1.284927608991091224e-03 1.013093894449865334e-01 8.621875623264244060e-02
6.981317007977318190e-02 1.580729322738912103e-03 1.278268016298369780e-01 1.145914925286489749e-01
8.726646259971647390e-02 1.866933278734207897e-03 1.548737695294420957e-01 1.463594679670505438e-01
1.047197551196597659e-01 2.143819042554121184e-03 1.824805372709403517e-01 1.819413804553414171e-01
1.221730476396030718e-01 2.411661006741115752e-03 2.106786227491627417e-01 2.217999644210910115e-01
1.396263401595463638e-01 2.670727408698718441e-03 2.394952040519351955e-01 2.663962971283373449e-01
1.570796326794896558e-01 2.921274091494185238e-03 2.689399609064681007e-01 3.160637238938452942e-01
1.745329251994329478e-01 3.163547374278044815e-03 2.990260662828287952e-01 3.713380871835509356e-01
1.919862177193762398e-01 3.397815527136892506e-03 3.297663170803784016e-01 4.327135023659383073e-01
2.094395102393195318e-01 3.624368685326361840e-03 3.611736716707517059e-01 5.006996885642033268e-01
2.268928027592628516e-01 3.843712326005433149e-03 3.932607044280126973e-01 5.752876657859337106e-01
2.443460952792061436e-01 4.056349692842316397e-03 4.260357036169516443e-01 6.566729097626604617e-01
2.617993877991494078e-01 4.262739734035160544e-03 4.595116532132961784e-01 7.453164335350966896e-01
2.792526803190927276e-01 4.463298508575332980e-03 4.937011823801925603e-01 8.416191719070267308e-01
2.967059728390360474e-01 4.658404207121089914e-03 5.286169932301827412e-01 9.460047084881493262e-01
3.141592653589793116e-01 4.848401917120640295e-03 5.642716001605058151e-01 1.058901294426908724e+00
3.316125578789225758e-01 5.033607195488021442e-03 6.006774370785290529e-01 1.180752784552858703e+00
3.490658503988658956e-01 5.214309557078257960e-03 6.378455527083712884e-01 1.311964993064393958e+00
3.665191429188092154e-01 5.390775289679409360e-03 6.757863289304532062e-01 1.452965258577645580e+00
3.839724354387524796e-01 5.563249756235755586e-03 7.145121916836458809e-01 1.604301298800308917e+00
4.014257279586957439e-01 5.731959844710216717e-03 7.540353775292668592e-01 1.766455143835313990e+00
4.188790204786390636e-01 5.897115527327344633e-03 7.943681122883482493e-01 1.939929517791550762e+00
4.363323129985823834e-01 6.058911814736951673e-03 8.355226103917756664e-01 2.125235024564434472e+00
4.537856055185257032e-01 6.217529939822320946e-03 8.775110877149456812e-01 2.322896856050889358e+00
4.712388980384689674e-01 6.373138911121076569e-03 9.203460644512782007e-01 2.533465900526836734e+00
4.886921905584122872e-01 6.525896356919796450e-03 9.640399755122039949e-01 2.757487645133193777e+00
5.061454830783556069e-01 6.675949893207887460e-03 1.008602453742747374e+00 2.995319270709571491e+00
5.235987755982988157e-01 6.823437607951690631e-03 1.054044709878555475e+00 3.247604030484648518e+00
5.410520681182421354e-01 6.968489310958145104e-03 1.100379132833668283e+00 3.514983353861564908e+00
5.585053606381854552e-01 7.111226888091650572e-03 1.147620937014271147e+00 3.798276856645727673e+00
5.759586531581287749e-01 7.251765136859898708e-03 1.195783371951972152e+00 4.097947665919204674e+00
5.934119456780720947e-01 7.390212426162640937e-03 1.244872456772930347e+00 4.413928934944538085e+00
6.108652381980153034e-01 7.526670906976892957e-03 1.294900407379204976e+00 4.747320447498749374e+00
6.283185307179586232e-01 7.661237375445229154e-03 1.345883164005205357e+00 5.099103408042147123e+00
6.457718232379019430e-01 7.794003514645583830e-03 1.397833758060414322e+00 5.469639665583489574e+00
6.632251157578451517e-01 7.925056141635401091e-03 1.450760939696785101e+00 5.859072765649335324e+00
6.806784082777884715e-01 8.054477911192608336e-03 1.504668493809141250e+00 6.267338062884426186e+00
6.981317007977317912e-01 8.182347440309193157e-03 1.559553676165736480e+00 6.694041066907601589e+00
7.155849933176750000e-01 8.308739465710463998e-03 1.615406345580293390e+00 7.138484908634613824e+00
7.330382858376184307e-01 8.433725413568663246e-03 1.672208954572437012e+00 7.599720850819556617e+00
7.504915783575616395e-01 8.557373528261325371e-03 1.729936549367697030e+00 8.076554696497558083e+00
7.679448708775049592e-01 8.679748918749152428e-03 1.788559571478497201e+00 8.567961817102178301e+00
7.853981633974482790e-01 8.800914020623318984e-03 1.848053534163065281e+00 9.074232291304944908e+00
8.028514559173914877e-01 8.920928861257166123e-03 1.908395704546214766e+00 9.595208238748437424e+00
8.203047484373349185e-01 9.039851063119434815e-03 1.969563573754288477e+00 1.013048910883073361e+01
8.377580409572781273e-01 9.157735932109575469e-03 2.031534856915162113e+00 1.067964217524843562e+01
8.552113334772214470e-01 9.274636691567975794e-03 2.094287493158242697e+00 1.124219054311260635e+01
8.726646259971647668e-01 9.390604520586603651e-03 2.157799623576067027e+00 1.181762668731868082e+01
8.901179185171079755e-01 9.505688560844230417e-03 2.222049161193440980e+00 1.240533707803078300e+01
9.075712110370514063e-01 9.619936356476163630e-03 2.287013399739715069e+00 1.300454711072679004e+01
9.250245035569946150e-01 9.733394553555992090e-03 2.352669054886624700e+00 1.361435595823541611e+01
9.424777960769379348e-01 9.846108962381418597e-03 2.418992815497336579e+00 1.423391224653152420e+01
9.599310885968812546e-01 9.958124550059834976e-03 2.485961705363531227e+00 1.486240434108309927e+01
9.773843811168245743e-01 1.006948472488342246e-02 2.553554120482992573e+00 1.549933721055360714e+01
9.948376736367677831e-01 1.018023003476204412e-02 2.621750426754538399e+00 1.614458393465759656e+01
1.012290966156711214e+00 1.029039802930772733e-02 2.690527144896893930e+00 1.679667746172846066e+01
1.029744258676654312e+00 1.040002325983466896e-02 2.759855702323874116e+00 1.745372061057755175e+01
1.047197551196597631e+00 1.050913728650960770e-02 2.829716917547038690e+00 1.811751143474107550e+01
1.064650843716540951e+00 1.061776870593565333e-02 2.900092275199022573e+00 1.878784537376215980e+01
1.082104136236484271e+00 1.072594315780282283e-02 2.970951556956587414e+00 1.946111025558663243e+01
1.099557428756427591e+00 1.083368332488803508e-02 3.042273091699124965e+00 2.013915440044690541e+01
1.117010721276370910e+00 1.094100920250772220e-02 3.114038413048864307e+00 2.082256137702325915e+01
1.134464013796314230e+00 1.104794207518167495e-02 3.186225489970810010e+00 2.150922338320520311e+01
1.151917306316257550e+00 1.115450754991555854e-02 3.258810386098569989e+00 2.219672121441964308e+01
1.169370598836200648e+00 1.126073563262937338e-02 3.331767183599430915e+00 2.288237324105117665e+01
1.186823891356144189e+00 1.136666072717024134e-02 3.405073784032142115e+00 2.356517918741504047e+01
1.204277183876087287e+00 1.147232030940935864e-02 3.478708378385522160e+00 2.424326075191390473e+01
1.221730476396030607e+00 1.157775098243326271e-02 3.552648566805317376e+00 2.491528289488764614e+01
1.239183768915973927e+00 1.168298774623117466e-02 3.626871902295553785e+00 2.558027444678382167e+01
1.256637061435917246e+00 1.178806399769499573e-02 3.701355812669851364e+00 2.623727538560025963e+01
1.274090353955860566e+00 1.189301156602543333e-02 3.776077712028166999e+00 2.688539651332866498e+01
1.291543646475803886e+00 1.199786158626662928e-02 3.851015038967682713e+00 2.752357818913684540e+01
1.308996938995747206e+00 1.210264540704943971e-02 3.926145300537232874e+00 2.815055999922188690e+01
1.326450231515690303e+00 1.220739463284245367e-02 4.001446097102455468e+00 2.876508883416596873e+01
1.343903524035633845e+00 1.231214112395198970e-02 4.076895151235220283e+00 2.936593672025617963e+01
1.361356816555576943e+00 1.241691697796396335e-02 4.152470290782562579e+00 2.995189346356665894e+01
1.378810109075520263e+00 1.252175440017595960e-02 4.228148614569229302e+00 3.052146772785710738e+01
1.396263401595463582e+00 1.262668564836638176e-02 4.303903844079543184e+00 3.107208092167995517e+01
1.413716694115406902e+00 1.273174303258934985e-02 4.379713942861765297e+00 3.160430360054983723e+01
1.431169986635350000e+00 1.283695891540929945e-02 4.455556796929166730e+00 3.211702785564997242e+01
1.448623279155293542e+00 1.294236580257224732e-02 4.531410526120674298e+00 3.260929111515672929e+01
1.466076571675236861e+00 1.304799657050428191e-02 4.607253354880951335e+00 3.308005177755364912e+01
1.483529864195180181e+00 1.315388450142060406e-02 4.683063452175575847e+00 3.352823054280759862e+01
1.500983156715123279e+00 1.326006328332552525e-02 4.758819357376268044e+00 3.395298586373279903e+01
1.518436449235066599e+00 1.336656701705189049e-02 4.834494745900943080e+00 3.435112135660124011e+01
1.535889741755009918e+00 1.347343033623151463e-02 4.910065652893668364e+00 3.472268292165833259e+01
1.553343034274953460e+00 1.358068850776023712e-02 4.985510509400823409e+00 3.506782929782971792e+01
1.570796326794896558e+00 1.368837743489772184e-02 5.060807385757200016e+00 3.538553109571829225e+01
1.588249619314839878e+00 1.379653365732223629e-02 5.135937709820508346e+00 3.567660332969611403e+01
1.605702911834782975e+00 1.390519442086433910e-02 5.210895289602198055e+00 3.594637904905270887e+01
1.623156204354726295e+00 1.401439788378091092e-02 5.285683246428425797e+00 3.619898489235728078e+01
1.640609496874669837e+00 1.412418315471345581e-02 5.360304691954322465e+00 3.643418476588254151e+01
1.658062789394613157e+00 1.423459029268810128e-02 5.434761822500613349e+00 3.665132326850549305e+01
1.675516081914556255e+00 1.434566033877729754e-02 5.509058533813615988e+00 3.685106344193685857e+01
1.692969374434499574e+00 1.445743554571740121e-02 5.583198579767519654e+00 3.703313199818505552e+01
1.710422666954442894e+00 1.456995947913387879e-02 5.657185719377441302e+00 3.719733010662249484e+01
1.727875959474386436e+00 1.468327701798366643e-02 5.731023658465806747e+00 3.734346687221310646e+01
1.745329251994329534e+00 1.479743438195235163e-02 5.804716070619321044e+00 3.747139161583512390e+01
1.762782544514272853e+00 1.491247939850686918e-02 5.878266594454071736e+00 3.758090530218900938e+01
1.780235837034215951e+00 1.502846165354093308e-02 5.951678837433456160e+00 3.767180529647401244e+01
1.797689129554159271e+00 1.514543249307073736e-02 6.024956378262130485e+00 3.774393590520463704e+01
1.815142422074102813e+00 1.526344508087795759e-02 6.098102769817867141e+00 3.779717242340830552e+01
1.832595714594046132e+00 1.538255475390327455e-02 6.171121542166021712e+00 3.783132868851306796e+01
1.850049007113989230e+00 1.550281915756587629e-02 6.244016205758716076e+00 3.784623271097229491e+01
1.867502299633932550e+00 1.562429824761911272e-02 6.316790254797581383e+00 3.784177207529388909e+01
1.884955592153875870e+00 1.574705449962157666e-02 6.389447170764483985e+00 3.781783156363228215e+01
1.902408884673818967e+00 1.587115332523291941e-02 6.461990426118960684e+00 3.777423511228420239e+01
1.919862177193762509e+00 1.599666312139256044e-02 6.534423488161595905e+00 3.771086531993515223e+01
1.937315469713705829e+00 1.612365536249991960e-02 6.606749823061861981e+00 3.762765316513119274e+01
1.954768762233649149e+00 1.625220514224548149e-02 6.678972900048297134e+00 3.752444966496732093e+01
1.972222054753592246e+00 1.638239137093826930e-02 6.751096195758514718e+00 3.740113775350464209e+01
1.989675347273535566e+00 1.651429684668137554e-02 6.823123198744599271e+00 3.725767351520130433e+01
2.007128639793478886e+00 1.664800887724569856e-02 6.895057414135585816e+00 3.709393560686818603e+01
2.024581932313422428e+00 1.678361960234107594e-02 6.966902368422739578e+00 3.690982271721878760e+01
2.042035224833365525e+00 1.692122612607292742e-02 7.038661614501390495e+00 3.670531288499134348e+01
2.059488517353308623e+00 1.706093131763153359e-02 7.110338736346477617e+00 3.648029184020332849e+01
2.076941809873252165e+00 1.720284411814267458e-02 7.181937355876198303e+00 3.623470175893717027e+01
2.094395102393195263e+00 1.734707995398764371e-02 7.253461132020842861e+00 3.596851831178460657e+01
2.111848394913138804e+00 1.749376168677974422e-02 7.324913788126210079e+00 3.568164460166659069e+01
2.129301687433081902e+00 1.764301986093547506e-02 7.396299047873876376e+00 3.537405784912088080e+01
2.146754979953025444e+00 1.779499377349702191e-02 7.467620831041064555e+00 3.504575388691149129e+01
2.164208272472968542e+00 1.794983209402855120e-02 7.538882866338056488e+00 3.469658771011224729e+01
2.181661564992911639e+00 1.810769387049716156e-02 7.610087507731011058e+00 3.432582377309926613e+01
2.199114857512855181e+00 1.826874965518748839e-02 7.681237791613624744e+00 3.393372367804128231e+01
2.216568150032798723e+00 1.843318244185218613e-02 7.752337610378297050e+00 3.352067493841187940e+01
2.234021442552741821e+00 1.860118896116444778e-02 7.823390942130163950e+00 3.308669177310603260e+01
2.251474735072684918e+00 1.877298162604116444e-02 7.894402160425609161e+00 3.263184231575412042e+01
2.268928027592628460e+00 1.894879060225014566e-02 7.965375109638046958e+00 3.215570531747794547e+01
2.286381320112572002e+00 1.912886294029170903e-02 8.036311541711780748e+00 3.165768124088141278e+01
2.303834612632515100e+00 1.931346642710686165e-02 8.107214837984347611e+00 3.113853727901367918e+01
2.321287905152458197e+00 1.950290271606685416e-02 8.178089478027040116e+00 3.059704933907955748e+01
2.338741197672401295e+00 1.969741588937764382e-02 8.248939768378079407e+00 3.004628261058809002e+01
2.356194490192344837e+00 1.989713604316961301e-02 8.319768899364827774e+00 2.950538490804449410e+01
2.373647782712288379e+00 2.010219947022518286e-02 8.390578926455708242e+00 2.897333423231488325e+01
2.391101075232231477e+00 2.031270521983276692e-02 8.461374475115590599e+00 2.845659320466150177e+01
2.408554367752174574e+00 2.052865512735365175e-02 8.532159963009702253e+00 2.796727781482567821e+01
2.426007660272118116e+00 2.074996118050185731e-02 8.602937396378592894e+00 2.751365449281947662e+01
2.443460952792061214e+00 2.097653803942060163e-02 8.673710706809671933e+00 2.709311195202658240e+01
2.460914245312004311e+00 2.120832735092251925e-02 8.744483927403571499e+00 2.669990630559475875e+01
2.478367537831947853e+00 2.144528731335118218e-02 8.815260363835376367e+00 2.632987903847370248e+01
2.495820830351891395e+00 2.168735625643606127e-02 8.886043742711564164e+00 2.598368022494212681e+01
2.513274122871834493e+00 2.193443495159943732e-02 8.956837271476244311e+00 2.566332627746515982e+01
2.530727415391777591e+00 2.218645279857414318e-02 9.027644104119470825e+00 2.536403246501621211e+01
2.548180707911721132e+00 2.244335423356461426e-02 9.098469245652426096e+00 2.508356452273115167e+01
2.565634000431664674e+00 2.270509331078811657e-02 9.169316570931004051e+00 2.481943317650974024e+01
2.583087292951607772e+00 2.297160828594609419e-02 9.240187541078245914e+00 2.457126677367781653e+01
2.600540585471550870e+00 2.324278794967044384e-02 9.311085287013353806e+00 2.434308494938676048e+01
2.617993877991494411e+00 2.351857030744978691e-02 9.382014405851201388e+00 2.412982542064805358e+01
2.635447170511437509e+00 2.379891879206708083e-02 9.452978825956511955e+00 2.392826062775154483e+01
2.652900463031380607e+00 2.408377063859820297e-02 9.523982069245182203e+00 2.373983613498049294e+01
2.670353755551324149e+00 2.437302920987696395e-02 9.595027684669846124e+00 2.356661874738735563e+01
2.687807048071267690e+00 2.466662501408805122e-02 9.666119191382669840e+00 2.340561300688980850e+01
2.705260340591210788e+00 2.496451993211135437e-02 9.737260035637124389e+00 2.325373337205408575e+01
2.722713633111153886e+00 2.526665532242271944e-02 9.808453604525563918e+00 2.311211595117130457e+01
2.740166925631096984e+00 2.557291904805920543e-02 9.879703262011279463e+00 2.298429146370167686e+01
2.757620218151040525e+00 2.588326150336819204e-02 9.951012625762851727e+00 2.286507588272140268e+01
2.775073510670984067e+00 2.619763395826673821e-02 1.002238568702048482e+01 2.275416743550858456e+01
2.792526803190927165e+00 2.651594804355036916e-02 1.009382619239549150e+01 2.265397849767366623e+01
2.809980095710870263e+00 2.683814871076760367e-02 1.016533711432460940e+01 2.256148738126345776e+01
2.827433388230813804e+00 2.716417203533712590e-02 1.023692140191684707e+01 2.247700303840355929e+01
2.844886680750756902e+00 2.749393407862367814e-02 1.030858352744199635e+01 2.240206299571310566e+01
2.862339973270700000e+00 2.782738492696047033e-02 1.038032927814999518e+01 2.233446159671728282e+01
2.879793265790643542e+00 2.816446914004102492e-02 1.045216189860503242e+01 2.227354914475507641e+01
2.897246558310587083e+00 2.850509738380183761e-02 1.052407990538533156e+01 2.221985005222784437e+01
2.914699850830530625e+00 2.884919443567774897e-02 1.059607748350346945e+01 2.217083558854521641e+01
2.932153143350473723e+00 2.919670240431455205e-02 1.066814660566934236e+01 2.212449872799832562e+01
2.949606435870416821e+00 2.954755886073911000e-02 1.074027769712639824e+01 2.208048159467713845e+01
2.967059728390360362e+00 2.990169708376988131e-02 1.081245965929083752e+01 2.203841616846982987e+01
2.984513020910303460e+00 3.025904950798724569e-02 1.088468058158199803e+01 2.199793865028820505e+01
3.001966313430246558e+00 3.061954960347008578e-02 1.095692856554106065e+01 2.195882911441521657e+01
3.019419605950190100e+00 3.098313333827163590e-02 1.102919177084357116e+01 2.192080318698139862e+01
3.036872898470133197e+00 3.134973600019678314e-02 1.110145841529944200e+01 2.188377858543440269e+01
3.054326190990076295e+00 3.171928867246517902e-02 1.117371677485294512e+01 2.184788542619306639e+01
3.071779483510019837e+00 3.209172025172639386e-02 1.124595518358272095e+01 2.181313165548202448e+01
3.089232776029963379e+00 3.246696213825070454e-02 1.131816203370177121e+01 2.177925383438446616e+01
3.106686068549906921e+00 3.284494864349821186e-02 1.139032577555746428e+01 2.174597551786497007e+01
3.124139361069850018e+00 3.322561485017819921e-02 1.146243474579784127e+01 2.171310064993070554e+01
3.141592653589793116e+00 3.360889529173184676e-02 1.153447671025940124e+01 2.168037476357618587e+01
3.159045946109736214e+00 3.399472394655819740e-02 1.160643961302354121e+01 2.164777226527642284e+01
3.176499238629679756e+00 3.438303437368364635e-02 1.167831180663908341e+01 2.161533218365735465e+01
3.193952531149622853e+00 3.477375979031429448e-02 1.175008205212228063e+01 2.158309230560520930e+01
3.211405823669565951e+00 3.516683307274608150e-02 1.182173951895681441e+01 2.155109353312882803e+01
3.228859116189509493e+00 3.556218680647656172e-02 1.189327372373488423e+01 2.151935862619887274e+01
3.246312408709452590e+00 3.595975357166909109e-02 1.196467372718773881e+01 2.148765491048458642e+01
3.263765701229396576e+00 3.635946604408854532e-02 1.203592757011508496e+01 2.145557498806090990e+01
3.281218993749339674e+00 3.676125699521769208e-02 1.210702253881773238e+01 2.142279177917149013e+01
3.298672286269282772e+00 3.716505929225717014e-02 1.217794637604419705e+01 2.138934555002600391e+01
3.316125578789226314e+00 3.757080589812551025e-02 1.224868746842828671e+01 2.135533653900949602e+01
3.333578871309169411e+00 3.797842987145912119e-02 1.231923412257951789e+01 2.132064858566120336e+01
3.351032163829112509e+00 3.838786436661229678e-02 1.238957466240133343e+01 2.128519653894705144e+01
3.368485456349056051e+00 3.879904263365720890e-02 1.245969819621377006e+01 2.124913055435240494e+01
3.385938748868999149e+00 3.921189678603108353e-02 1.252959479196115744e+01 2.121272166009854132e+01
3.403392041388942246e+00 3.962635473694048338e-02 1.259925323224841875e+01 2.117571461753696127e+01
3.420845333908885788e+00 4.004234643027100582e-02 1.266865838771389896e+01 2.113672506051037914e+01
3.438298626428828886e+00 4.045980570640290291e-02 1.273779921409254356e+01 2.109671563818239548e+01
