# angles(rad), pulling distance(m),                                     elastic band force(n), cable force(n)
0.000000000000000000e+00 3.194017900117221919e-04 2.324252025825173512e-02 1.691332875546552872e-02
1.745329251994329547e-02 6.309464430103009286e-04 4.687486639445292286e-02 3.555712020924813727e-02
3.490658503988659095e-02 9.350959806029565191e-04 7.091814465295884218e-02 5.606139331869354481e-02
5.235987755982988295e-02 1.232225032037209678e-03 9.539445669677355799e-02 7.858216751575547443e-02
6.981317007977318190e-02 1.522507645527515973e-03 1.203274257385611168e-01 1.033516938801338908e-01
8.726646259971647390e-02 1.806072984611392564e-03 1.457423041908431915e-01 1.306232615852312429e-01
1.047197551196597659e-01 2.083066806694071089e-03 1.716661404405726010e-01 1.606622444119393534e-01
1.221730476396030718e-01 2.353630037174650729e-03 1.981279608403889725e-01 1.937745386402950909e-01
1.396263401595463638e-01 2.617905324381886167e-03 2.251589762462471167e-01 2.303006013160402710e-01
1.570796326794896558e-01 2.876036864483387002e-03 2.527928141699754550e-01 2.706230959730621666e-01
1.745329251994329478e-01 3.128164373403598091e-03 2.810657839155177862e-01 3.151803799269423667e-01
1.919862177193762398e-01 3.374404709465656481e-03 3.100171777580539856e-01 3.644987476366564061e-01
2.094395102393195318e-01 3.614900242911417427e-03 3.396896151985122625e-01 4.191104388399958802e-01
2.268928027592628516e-01 3.849797886893034562e-03 3.701291761022370563e-01 4.796374032210907190e-01
2.443460952792061436e-01 4.079245301491818930e-03 4.013823854161499005e-01 5.467260430135629790e-01
2.617993877991494078e-01 4.303385559037526190e-03 4.334661396127404420e-01 6.204695768694803437e-01
2.792526803190927276e-01 4.522344723229675990e-03 4.663926958288082125e-01 7.013501980896412746e-01
2.967059728390360474e-01 4.736257901556180198e-03 5.001790429443787600e-01 7.900038182340812787e-01
3.141592653589793116e-01 4.945275520019751063e-03 5.348372141329363894e-01 8.868381460705030417e-01
3.316125578789225758e-01 5.149541776272865967e-03 5.703842460772095002e-01 9.925999226564635736e-01
3.490658503988658956e-01 5.349183996148403758e-03 6.068328114134209361e-01 1.107891175962080421e+00
3.665191429188092154e-01 5.544344370186186921e-03 6.441978602388594988e-01 1.233369459335427631e+00
3.839724354387524796e-01 5.735166272320588697e-03 6.824952076119749078e-01 1.369746122119291476e+00
4.014257279586957439e-01 5.921787733834980166e-03 7.217392774511164344e-01 1.517723973443377838e+00
4.188790204786390636e-01 6.104349310311271704e-03 7.619433758632552234e-01 1.677967897678719345e+00
4.363323129985823834e-01 6.282989566174650674e-03 8.031224861720629438e-01 1.851311133077194748e+00
4.537856055185257032e-01 6.457845150602260081e-03 8.452916374629844132e-01 2.038552618254207083e+00
4.712388980384689674e-01 6.629057411766256340e-03 8.884659927326439277e-01 2.240432207043137058e+00
4.886921905584122872e-01 6.796768815186464245e-03 9.326578169297479182e-01 2.457546084600229719e+00
5.061454830783556069e-01 6.961118874736062744e-03 9.778825933471551046e-01 2.690873478707385136e+00
5.235987755982988157e-01 7.122244930100958722e-03 1.024157260958484805e+00 2.941332903933868703e+00
5.410520681182421354e-01 7.280283954919607170e-03 1.071492906609080364e+00 3.209321786348368288e+00
5.585053606381854552e-01 7.435378480992564654e-03 1.119905678424275131e+00 3.495786694534338768e+00
5.759586531581287749e-01 7.587675639980585342e-03 1.169410990040208764e+00 3.801256428794679287e+00
5.934119456780720947e-01 7.737318252870406879e-03 1.220022704831053462e+00 4.126327386486330795e+00
6.108652381980153034e-01 7.884442251729536708e-03 1.271754547433763260e+00 4.471752167375304232e+00
6.283185307179586232e-01 8.029173920973950440e-03 1.324622197838933202e+00 4.838586028881827872e+00
6.457718232379019430e-01 8.171628541776934304e-03 1.378640112166785725e+00 5.227718346248687808e+00
6.632251157578451517e-01 8.311904807479720408e-03 1.433802982852453445e+00 5.638351444241776811e+00
6.806784082777884715e-01 8.450081909251236714e-03 1.490075300921816615e+00 6.068298596928574540e+00
6.981317007977317912e-01 8.586231841265069484e-03 1.547427459116508919e+00 6.518424439686341110e+00
7.155849933176750000e-01 8.720439146067113234e-03 1.605833349791836451e+00 6.988451724671636001e+00
7.330382858376184307e-01 8.852800883888933478e-03 1.665266040809078252e+00 7.477330208382688248e+00
7.504915783575616395e-01 8.983412202262029689e-03 1.725694107062321292e+00 7.984021532997031656e+00
7.679448708775049592e-01 9.112359412020584748e-03 1.787084195412608656e+00 8.508075269810465358e+00
7.853981633974482790e-01 9.239721118026317237e-03 1.849405345042851145e+00 9.049585691808902155e+00
8.028514559173914877e-01 9.365572429343639593e-03 1.912627280506963956e+00 9.608163572505409533e+00
8.203047484373349185e-01 9.489985902219229275e-03 1.976719668519308470e+00 1.018319648653024245e+01
8.377580409572781273e-01 9.613031415875005620e-03 2.041652117954691814e+00 1.077401922061158324e+01
8.552113334772214470e-01 9.734775797199009262e-03 2.107394179848367965e+00 1.137994518508818942e+01
8.726646259971647668e-01 9.855282750134296624e-03 2.173915424050876233e+00 1.200026681253349636e+01
8.901179185171079755e-01 9.974612984940111129e-03 2.241185927778079900e+00 1.263432578954455821e+01
9.075712110370514063e-01 1.009282483294440813e-02 2.309176456371617281e+00 1.328142064734072214e+01
9.250245035569946150e-01 1.020997442910595923e-02 2.377857391756187599e+00 1.394059179271244808e+01
9.424777960769379348e-01 1.032611572580542647e-02 2.447196808679143132e+00 1.461041030466723711e+01
9.599310885968812546e-01 1.044130071695897541e-02 2.517163592658989479e+00 1.528999911930616307e+01
9.773843811168245743e-01 1.055557962035063094e-02 2.587733113235201277e+00 1.597977227295728753e+01
9.948376736367677831e-01 1.066900088292596811e-02 2.658875867198412291e+00 1.667762704661931039e+01
1.012290966156711214e+00 1.078161125468957322e-02 2.730552183172660463e+00 1.737991962908252574e+01
1.029744258676654312e+00 1.089345607785070433e-02 2.802733628087046736e+00 1.808803995281995114e+01
1.047197551196597631e+00 1.100457935753362468e-02 2.875396135029816058e+00 1.880195510976536255e+01
1.064650843716540951e+00 1.111502376254119503e-02 2.948509615208766643e+00 1.951894252083065240e+01
1.082104136236484271e+00 1.122483072982076099e-02 3.022039297733192686e+00 2.023638350496650062e+01
1.099557428756427591e+00 1.133404067419253002e-02 3.095954042282715424e+00 2.095382920381249647e+01
1.117010721276370910e+00 1.144269301342891627e-02 3.170224540075583519e+00 2.167041743982345636e+01
1.134464013796314230e+00 1.155082616942936305e-02 3.244821193501789214e+00 2.238469780727217184e+01
1.151917306316257550e+00 1.165847766770045438e-02 3.319714069512828658e+00 2.309516710803558581e+01
1.169370598836200648e+00 1.176568431103600446e-02 3.394873153733474869e+00 2.380034943182097251e+01
1.186823891356144189e+00 1.187248219699234622e-02 3.470268442415957999e+00 2.449878934201169045e+01
1.204277183876087287e+00 1.197890671816401013e-02 3.545870102056695394e+00 2.518908815700026693e+01
1.221730476396030607e+00 1.208499263109250217e-02 3.621648401096466685e+00 2.586982078762795112e+01
1.239183768915973927e+00 1.219077421550034471e-02 3.697574137801447502e+00 2.653968949372663388e+01
1.256637061435917246e+00 1.229628529671375654e-02 3.773614026825705015e+00 2.719573987113439273e+01
1.274090353955860566e+00 1.240155924566265118e-02 3.849735615151938184e+00 2.783670533758520449e+01
1.291543646475803886e+00 1.250662901296661390e-02 3.925909809965397734e+00 2.846232806619131850e+01
1.308996938995747206e+00 1.261152727885232576e-02 4.002107816956644193e+00 2.907127556793317424e+01
1.326450231515690303e+00 1.271628649435744760e-02 4.078300999816969252e+00 2.966218602728161358e+01
1.343903524035633845e+00 1.282093888133180488e-02 4.154461744768956244e+00 3.023408356979630440e+01
1.361356816555576943e+00 1.292551644323648892e-02 4.230553079524749904e+00 3.078178767159161922e+01
1.378810109075520263e+00 1.303005108748713815e-02 4.306544715662126599e+00 3.130649952347304321e+01
1.396263401595463582e+00 1.313457470289342184e-02 4.382408976161398684e+00 3.180795219238732585e+01
1.413716694115406902e+00 1.323911916088430819e-02 4.458118494324345704e+00 3.228502109103132511e+01
1.431169986635350000e+00 1.334371631702426821e-02 4.533642349613294265e+00 3.273493863311968965e+01
1.448623279155293542e+00 1.344839809154191324e-02 4.608943785966348017e+00 3.315382154658186664e+01
1.466076571675236861e+00 1.355319658848820434e-02 4.683996000474867749e+00 3.354478192228746281e+01
1.483529864195180181e+00 1.365814410535237493e-02 4.758771087105999165e+00 3.390623531918586053e+01
1.500983156715123279e+00 1.376327313306604377e-02 4.833242077437645001e+00 3.423757756037583988e+01
1.518436449235066599e+00 1.386861639859753893e-02 4.907370165634399761e+00 3.453224718418327654e+01
1.535889741755009918e+00 1.397420701248812229e-02 4.981126541690054310e+00 3.479379737013311313e+01
1.553343034274953460e+00 1.408007850077373779e-02 5.054483120647216055e+00 3.502166599633795130e+01
1.570796326794896558e+00 1.418626480498500972e-02 5.127411569769825483e+00 3.521491557448350562e+01
1.588249619314839878e+00 1.429280030420033293e-02 5.199883480373476807e+00 3.537276246083688847e+01
1.605702911834782975e+00 1.439971997122037502e-02 5.271864099758351685e+00 3.549132295205920684e+01
1.623156204354726295e+00 1.450705943998666092e-02 5.343323963378794339e+00 3.557248848829964771e+01
1.640609496874669837e+00 1.461485500584806807e-02 5.414261519124455191e+00 3.562989583711446073e+01
1.658062789394613157e+00 1.472314364103613146e-02 5.484685354049988248e+00 3.566880082303249822e+01
1.675516081914556255e+00 1.483196316035864659e-02 5.554605880119672712e+00 3.569037684284013068e+01
1.692969374434499574e+00 1.494135232171796800e-02 5.624033225647818490e+00 3.569473366161294337e+01
1.710422666954442894e+00 1.505135082752163261e-02 5.692977508040546475e+00 3.568214368933017511e+01
1.727875959474386436e+00 1.516199934492675448e-02 5.761448789395054781e+00 3.565287545822978643e+01
1.745329251994329534e+00 1.527333970539303254e-02 5.829457110824472821e+00 3.560717706424475892e+01
1.762782544514272853e+00 1.538541501824761820e-02 5.897012504252199250e+00 3.554529446550441207e+01
1.780235837034215951e+00 1.549826967199950840e-02 5.964125007129039702e+00 3.546751005756191688e+01
1.797689129554159271e+00 1.561194938526647147e-02 6.030804673783228154e+00 3.537412558035126864e+01
1.815142422074102813e+00 1.572650147184717281e-02 6.097061585447946186e+00 3.526539611277861042e+01
1.832595714594046132e+00 1.584197492668932769e-02 6.162905857598328652e+00 3.514158739595817593e+01
1.850049007113989230e+00 1.595842042828724688e-02 6.228347648746336063e+00 3.500300315883786340e+01
1.867502299633932550e+00 1.607589051048988193e-02 6.293397157482581328e+00 3.484992822854648153e+01
1.884955592153875870e+00 1.619443984809661174e-02 6.358064649457588757e+00 3.468261425967131117e+01
1.902408884673818967e+00 1.631412528382669008e-02 6.422360403240932492e+00 3.450131594339879371e+01
1.919862177193762509e+00 1.643500590221066635e-02 6.486294239754915480e+00 3.430605179308430053e+01
1.937315469713705829e+00 1.655714341867245420e-02 6.549875229291053813e+00 3.409661179305670942e+01
1.954768762233649149e+00 1.668060230713673195e-02 6.613113619569671364e+00 3.387383972375457120e+01
1.972222054753592246e+00 1.680544984497005234e-02 6.676019901443829063e+00 3.363811549719074634e+01
1.989675347273535566e+00 1.693175654249852100e-02 6.738604702075237540e+00 3.338969667211762271e+01
2.007128639793478886e+00 1.705959638186703084e-02 6.800878327003998081e+00 3.312858872586376435e+01
2.024581932313422428e+00 1.718904687918260815e-02 6.862849873889367736e+00 3.285436761901235059e+01
2.042035224833365525e+00 1.732018961171444271e-02 6.924529169199604262e+00 3.256757513480526711e+01
2.059488517353308623e+00 1.745311049306834048e-02 6.985926937984984875e+00 3.226884463306944895e+01
2.076941809873252165e+00 1.758789993494643336e-02 7.047053693731291091e+00 3.195825458327919932e+01
2.094395102393195263e+00 1.772465353873081337e-02 7.107919019758870860e+00 3.163542287319778978e+01
2.111848394913138804e+00 1.786347229592863406e-02 7.168532436293354237e+00 3.130047057565939994e+01
2.129301687433081902e+00 1.800446309980484674e-02 7.228904902569305513e+00 3.095427541682765593e+01
2.146754979953025444e+00 1.814773941600002910e-02 7.289046962843952038e+00 3.059670386743454173e+01
2.164208272472968542e+00 1.829342157759784177e-02 7.348967076788139430e+00 3.022682666041945154e+01
2.181661564992911639e+00 1.844163776727576753e-02 7.408676062806030416e+00 2.984589850855209647e+01
2.199114857512855181e+00 1.859252440043638460e-02 7.468184641783347288e+00 2.945397125401215277e+01
2.216568150032798723e+00 1.874622721370182432e-02 7.527501765094834596e+00 2.905020024952124302e+01
2.234021442552741821e+00 1.890290190278258453e-02 7.586638236534986035e+00 2.863557719717829642e+01
2.251474735072684918e+00 1.906271535922664934e-02 7.645604572193461124e+00 2.820997027079025798e+01
2.268928027592628460e+00 1.922584655926711655e-02 7.704409676048926237e+00 2.777265238242059198e+01
2.286381320112572002e+00 1.939248807915785328e-02 7.763063959310846585e+00 2.732433986130122605e+01
2.303834612632515100e+00 1.956284727561182976e-02 7.821578257512674881e+00 2.686524543995944825e+01
2.321287905152458197e+00 1.973714819009701055e-02 7.879962178478738366e+00 2.639476048664038643e+01
2.338741197672401295e+00 1.991563318030961649e-02 7.938225439240376602e+00 2.591292960826583069e+01
2.356194490192344837e+00 2.009856501462672224e-02 7.996378245943527752e+00 2.541995165562925507e+01
2.373647782712288379e+00 2.028623001707003173e-02 8.054430985692766498e+00 2.491576904339812515e+01
2.391101075232231477e+00 2.047893913208479605e-02 8.112393942698842508e+00 2.440042035795622155e+01
2.408554367752174574e+00 2.067703320180983365e-02 8.170277106089439911e+00 2.387358113923704650e+01
2.426007660272118116e+00 2.088084929953192698e-02 8.228090309164979743e+00 2.333928778364969148e+01
2.443460952792061214e+00 2.109047624805673177e-02 8.285843380194840790e+00 2.282783318873070755e+01
2.460914245312004311e+00 2.130585981405339058e-02 8.343546418366670991e+00 2.235305071859157877e+01
2.478367537831947853e+00 2.152693264267547743e-02 8.401209685192814192e+00 2.191319479463369291e+01
2.495820830351891395e+00 2.175362756058686967e-02 8.458843344831835864e+00 2.150529455037921522e+01
2.513274122871834493e+00 2.198587891843791289e-02 8.516457500945261216e+00 2.112661542790668179e+01
2.530727415391777591e+00 2.222361624889944778e-02 8.574062257874645709e+00 2.077531413781008851e+01
2.548180707911721132e+00 2.246673824754689963e-02 8.631667709951962308e+00 2.045191810610217686e+01
2.565634000431664674e+00 2.271516670525484949e-02 8.689283932962574397e+00 2.015243042214779479e+01
2.583087292951607772e+00 2.296883477058276127e-02 8.746920992316434607e+00 1.987427166860609162e+01
2.600540585471550870e+00 2.322767610439213301e-02 8.804588947696498025e+00 1.961597999450493290e+01
2.617993877991494411e+00 2.349162394678341870e-02 8.862297854605859726e+00 1.937631000356206101e+01
2.635447170511437509e+00 2.376061304481221284e-02 8.920057765628321533e+00 1.915400091057761500e+01
2.652900463031380607e+00 2.403457623917961555e-02 8.977878734441320674e+00 1.894815278051030560e+01
2.670353755551324149e+00 2.431343164223521980e-02 9.035770817522612575e+00 1.875881152524112849e+01
2.687807048071267690e+00 2.459708346038876406e-02 9.093744074456854065e+00 1.858595390484522625e+01
2.705260340591210788e+00 2.488546403532216830e-02 9.151808569526618697e+00 1.842687024559210585e+01
2.722713633111153886e+00 2.517851126480333962e-02 9.209974384526361746e+00 1.828052314813467660e+01
2.740166925631096984e+00 2.547616731189757122e-02 9.268251623314382570e+00 1.814604871200101144e+01
2.757620218151040525e+00 2.577836505304222786e-02 9.326650384988305120e+00 1.802345811672389075e+01
2.775073510670984067e+00 2.608499681804070380e-02 9.385180749146755375e+00 1.791458386391142099e+01
2.792526803190927165e+00 2.639598987741780325e-02 9.443852872724811220e+00 1.781682536296132469e+01
2.809980095710870263e+00 2.671129566785798021e-02 9.502677089194552451e+00 1.772842589907603994e+01
2.827433388230813804e+00 2.703084747547751174e-02 9.561663681290239580e+00 1.765003175935509461e+01
2.844886680750756902e+00 2.735454902103296587e-02 9.620822459024767070e+00 1.758274266192183077e+01
2.862339973270700000e+00 2.768232860764883313e-02 9.680162909892601419e+00 1.752474086253265995e+01
2.879793265790643542e+00 2.801412663648424756e-02 9.739694959483093939e+00 1.747520940252001509e+01
2.897246558310587083e+00 2.834987482447940549e-02 9.799429095064454032e+00 1.743450738125686073e+01
2.914699850830530625e+00 2.868948668489143192e-02 9.859375663463165296e+00 1.740327139521343724e+01
2.932153143350473723e+00 2.903288544328783138e-02 9.919544432132845202e+00 1.738057461339598220e+01
2.949606435870416821e+00 2.938000868701436813e-02 9.979945172074659254e+00 1.736547707093136594e+01
2.967059728390360362e+00 2.973079583218530761e-02 1.004058875194605349e+01 1.735802620810771657e+01
2.984513020910303460e+00 3.008517113006267327e-02 1.010148633680553232e+01 1.735888830533982485e+01
3.001966313430246558e+00 3.044304313191801073e-02 1.016264197524892055e+01 1.736662424123251114e+01
3.019419605950190100e+00 3.080433504067449021e-02 1.022404902453707010e+01 1.737732473819055556e+01
3.036872898470133197e+00 3.116898340502266551e-02 1.028569281869502205e+01 1.738796037165714026e+01
3.054326190990076295e+00 3.153692156944899738e-02 1.034755810559114231e+01 1.739843030077527075e+01
3.071779483510019837e+00 3.190807821670487571e-02 1.040963032081216788e+01 1.740905944759476753e+01
3.089232776029963379e+00 3.228237829705407624e-02 1.047189552790244882e+01 1.742010696509424150e+01
3.106686068549906921e+00 3.265974561858291103e-02 1.053433991847896323e+01 1.743156862841953370e+01
3.124139361069850018e+00 3.304010871924057541e-02 1.059694956318404380e+01 1.744310228729982626e+01
3.141592653589793116e+00 3.342340070732987417e-02 1.065971040986346452e+01 1.745438129337086508e+01
3.159045946109736214e+00 3.380955180009607985e-02 1.072260828356644424e+01 1.746542413631362933e+01
3.176499238629679756e+00 3.419848595545871978e-02 1.078562888654563601e+01 1.747639868003218666e+01
3.193952531149622853e+00 3.459012259028022840e-02 1.084875779825714304e+01 1.748739041070128764e+01
3.211405823669565951e+00 3.498438347350318195e-02 1.091198047536050275e+01 1.749817563721519420e+01
3.228859116189509493e+00 3.538119443811491710e-02 1.097528222177238888e+01 1.750845097441570175e+01
3.246312408709452590e+00 3.578048533827235533e-02 1.103864816673382343e+01 1.751791418001475620e+01
3.263765701229396576e+00 3.618218805081398898e-02 1.110206362627363497e+01 1.752645537904856354e+01
3.281218993749339674e+00 3.658623366907020474e-02 1.116551420106090653e+01 1.753411649185376220e+01
3.298672286269282772e+00 3.699255229259060251e-02 1.122898577640497386e+01 1.754094878963301340e+01
3.316125578789226314e+00 3.740107302714396759e-02 1.129246452225542363e+01 1.754700373329102803e+01
3.333578871309169411e+00 3.781172398471829843e-02 1.135593684843731310e+01 1.755232063752071170e+01
3.351032163829112509e+00 3.822443228352078587e-02 1.141938887965002358e+01 1.755679305999094453e+01
3.368485456349056051e+00 3.863912404797782696e-02 1.148280611487779268e+01 1.756021891140090574e+01
3.385938748868999149e+00 3.905572440873500417e-02 1.154617356376735060e+01 1.756243229943931539e+01
3.403392041388942246e+00 3.947415782359164904e-02 1.160947611561121917e+01 1.756335506666985680e+01
3.420845333908885788e+00 3.989434936351006489e-02 1.167269935045874085e+01 1.756308117202576113e+01
3.438298626428828886e+00 4.031622504263444873e-02 1.173583091269297007e+01 1.756207755736983600e+01
