# angles(rad), pulling distance(m),                                     elastic band force(n), cable force(n)
0.000000000000000000e+00 3.383778097619640824e-04 2.390037975301438286e-02 1.688137152788290671e-02
1.745329251994329547e-02 6.700153041791018704e-04 4.814709245324984982e-02 3.520134899455135136e-02
3.490658503988659095e-02 9.952662488063891959e-04 7.276059557532098265e-02 5.506188916404664707e-02
5.235987755982988295e-02 1.314335040387634235e-03 9.776151142665584493e-02 7.660189229302244440e-02
6.981317007977318190e-02 1.627281103551516707e-03 1.231706271474959230e-01 1.000062658388592846e-01
8.726646259971647390e-02 1.934154018580001464e-03 1.490091315950735074e-01 1.254647419467304348e-01
1.047197551196597659e-01 2.235014131661400109e-03 1.752996854644592872e-01 1.531850060410915315e-01
1.221730476396030718e-01 2.529923322213133673e-03 2.020667186899630652e-01 1.834031202223234125e-01
1.396263401595463638e-01 2.818943857035021913e-03 2.293363785995699289e-01 2.163834155647503810e-01
1.570796326794896558e-01 3.102137049462449798e-03 2.571365146737397134e-01 2.524223847435745349e-01
1.745329251994329478e-01 3.379557028031199804e-03 2.854969730673632133e-01 2.918616412543575400e-01
1.919862177193762398e-01 3.651253151118964268e-03 3.144498499605303254e-01 3.350886163377905791e-01
2.094395102393195318e-01 3.917286382138057167e-03 3.440295821976454560e-01 3.825199913586209699e-01
2.268928027592628516e-01 4.177718253816562789e-03 3.742731526158686872e-01 4.346379102463239774e-01
2.443460952792061436e-01 4.432609786435848416e-03 4.052211231316191209e-01 4.920042357691007950e-01
2.617993877991494078e-01 4.682020890148244456e-03 4.369159970451570452e-01 5.552277838087992246e-01
2.792526803190927276e-01 4.926010260418226677e-03 4.693963787257317000e-01 6.248704000350890908e-01
2.967059728390360474e-01 5.164634844574032650e-03 5.026923482109475483e-01 7.014209850044049732e-01
3.141592653589793116e-01 5.397946684544582298e-03 5.368265948932436915e-01 7.853939782059945474e-01
3.316125578789225758e-01 5.626005016525329611e-03 5.718266396161804099e-01 8.775806516914486100e-01
3.490658503988658956e-01 5.848869095860958524e-03 6.077200500310273590e-01 9.787645114511643873e-01
3.665191429188092154e-01 6.066598149686926351e-03 6.445311589532104479e-01 1.089698700244746687e+00
3.839724354387524796e-01 6.279251470453561107e-03 6.822859987135356796e-01 1.211342407411145627e+00
4.014257279586957439e-01 6.486888489591845913e-03 7.210124347450730387e-01 1.344762222458131262e+00
4.188790204786390636e-01 6.689568924571242386e-03 7.607371209104459853e-01 1.491019268119732288e+00
4.363323129985823834e-01 6.887347321302783251e-03 8.014827422809569502e-01 1.651187030113627996e+00
4.537856055185257032e-01 7.080358697699161603e-03 8.432786687141508031e-01 1.826089936163967753e+00
4.712388980384689674e-01 7.268883966422950635e-03 8.861535020358120018e-01 2.015309881502241218e+00
4.886921905584122872e-01 7.453181639030617180e-03 9.301262290126300902e-01 2.219245970046420435e+00
5.061454830783556069e-01 7.633490708520786899e-03 9.752270021898903352e-01 2.439338850035144279e+00
5.235987755982988157e-01 7.810032981318882662e-03 1.021485683536910827e+00 2.676558989886708595e+00
5.410520681182421354e-01 7.983014121395008711e-03 1.068920957893969792e+00 2.931218910997811289e+00
5.585053606381854552e-01 8.152625655088334422e-03 1.117561441239668385e+00 3.204895768981071313e+00
5.759586531581287749e-01 8.319046061658685182e-03 1.167438085620631449e+00 3.498843407084096135e+00
5.934119456780720947e-01 8.482442047755325495e-03 1.218573008736681951e+00 3.813535362869340251e+00
6.108652381980153034e-01 8.642969604995661553e-03 1.270990326512843049e+00 4.150184864241522220e+00
6.283185307179586232e-01 8.800774956973428376e-03 1.324717782231719543e+00 4.510221934354340156e+00
6.457718232379019430e-01 8.955995375519358245e-03 1.379782654153773658e+00 4.894817050681201209e+00
6.632251157578451517e-01 9.108759959566862727e-03 1.436211439172798698e+00 5.305134501446024053e+00
6.806784082777884715e-01 9.259190333343539012e-03 1.494030035949254209e+00 5.742372238515060623e+00
6.981317007977317912e-01 9.407401205629911667e-03 1.553264264139240680e+00 6.207804356187906158e+00
7.155849933176750000e-01 9.553500985767548678e-03 1.613940256076625612e+00 6.702777093358483818e+00
7.330382858376184307e-01 9.697592243015331487e-03 1.676085094257352415e+00 7.228754814779263960e+00
7.504915783575616395e-01 9.839772169059712512e-03 1.739727292437162953e+00 7.787320770553082916e+00
7.679448708775049592e-01 9.980133014557935126e-03 1.804891509699768637e+00 8.379426759366234378e+00
7.853981633974482790e-01 1.011876241708147169e-02 1.871587039317569534e+00 9.004330000766248787e+00
8.028514559173914877e-01 1.025574380884158691e-02 1.939806298889843683e+00 9.660593145063234743e+00
8.203047484373349185e-01 1.039115665634505331e-02 2.009493272417487209e+00 1.034137506600705336e+01
8.377580409572781273e-01 1.052507682580671941e-02 2.080605172177317108e+00 1.104805848427553450e+01
8.552113334772214470e-01 1.065757676899771293e-02 2.153099210446149936e+00 1.178014516834040393e+01
8.726646259971647668e-01 1.078872583875908724e-02 2.226916551293018909e+00 1.253421456998746031e+01
8.901179185171079755e-01 1.091859044890457556e-02 2.302028307837767240e+00 1.331458891099877739e+01
9.075712110370514063e-01 1.104723432785958102e-02 2.378399093816692567e+00 1.411961530092485795e+01
9.250245035569946150e-01 1.117471868365761331e-02 2.455987023582547391e+00 1.494732020244610204e+01
9.424777960769379348e-01 1.130110237783411506e-02 2.534744777432283325e+00 1.579561402708483442e+01
9.599310885968812546e-01 1.142644212194179713e-02 2.614626186507689631e+00 1.666351128052851038e+01
9.773843811168245743e-01 1.155079256834394552e-02 2.695588601936849571e+00 1.755050910797116970e+01
9.948376736367677831e-01 1.167420653041324752e-02 2.777591855810187305e+00 1.845589966397924542e+01
1.012290966156711214e+00 1.179673503809049694e-02 2.860594289287939240e+00 1.937804448160639836e+01
1.029744258676654312e+00 1.191842751526783067e-02 2.944547698930469526e+00 2.031389490247985918e+01
1.047197551196597631e+00 1.203933188111096925e-02 3.029410426688160296e+00 2.126342010179255837e+01
1.064650843716540951e+00 1.215949462765450115e-02 3.115142060004844282e+00 2.222537554274055438e+01
1.082104136236484271e+00 1.227896098429569725e-02 3.201699714368959171e+00 2.319746119707729193e+01
1.099557428756427591e+00 1.239777494885100327e-02 3.289041138216079574e+00 2.417809532564065833e+01
1.117010721276370910e+00 1.251597941698404451e-02 3.377124546777297898e+00 2.516560041377609380e+01
1.134464013796314230e+00 1.263361627433665438e-02 3.465910889198629885e+00 2.615894014303909643e+01
1.151917306316257550e+00 1.275072643032548400e-02 3.555349634096615308e+00 2.715272695712618045e+01
1.169370598836200648e+00 1.286734995713222432e-02 3.645395548016241882e+00 2.814637686816082152e+01
1.186823891356144189e+00 1.298352612810066767e-02 3.736015030889310751e+00 2.914158276030306638e+01
1.204277183876087287e+00 1.309929347659348139e-02 3.827160878614856987e+00 3.013196961015761843e+01
1.221730476396030607e+00 1.321468991203942657e-02 3.918787132679301344e+00 3.111567389891731139e+01
1.239183768915973927e+00 1.332975273635164312e-02 4.010859696418912712e+00 3.209465240025079424e+01
1.256637061435917246e+00 1.344451872283378840e-02 4.103325198439663701e+00 3.305997151753203411e+01
1.274090353955860566e+00 1.355902420347971336e-02 4.196149023076738871e+00 3.401606620678107618e+01
1.291543646475803886e+00 1.367330508035207760e-02 4.289285733155293379e+00 3.495685128660152685e+01
1.308996938995747206e+00 1.378739691597508435e-02 4.382688038837496691e+00 3.587926915873767086e+01
1.326450231515690303e+00 1.390133499716999371e-02 4.476324055866028218e+00 3.678709972333822265e+01
1.343903524035633845e+00 1.401515434829508737e-02 4.570140818804286909e+00 3.766985258253652091e+01
1.361356816555576943e+00 1.412888982764623318e-02 4.664095741207775703e+00 3.852929234989820628e+01
1.378810109075520263e+00 1.424257617421400245e-02 4.758152962290402854e+00 3.936608560574331506e+01
1.396263401595463582e+00 1.435624802601314504e-02 4.852269445575707607e+00 4.017516464650099550e+01
1.413716694115406902e+00 1.446994001993010502e-02 4.946393637119374631e+00 4.095057937770496181e+01
1.431169986635350000e+00 1.458368682610863658e-02 5.040486249542226460e+00 4.169545809985165619e+01
1.448623279155293542e+00 1.469752317416173071e-02 5.134508604574664403e+00 4.240812352055309020e+01
1.466076571675236861e+00 1.481148395525942567e-02 5.228420305663690648e+00 4.308586166080793589e+01
1.483529864195180181e+00 1.492560424707434046e-02 5.322170944692131478e+00 4.372201640464765404e+01
1.500983156715123279e+00 1.503991935204615667e-02 5.415716858016864421e+00 4.431769361680120056e+01
1.518436449235066599e+00 1.515446489999338134e-02 5.509018642392502940e+00 4.487309011177813289e+01
1.535889741755009918e+00 1.526927686579030059e-02 5.602037340415348510e+00 4.538675181317918117e+01
1.553343034274953460e+00 1.538439162598159195e-02 5.694730090447454707e+00 4.585512682274533347e+01
1.570796326794896558e+00 1.549984605822453745e-02 5.787045055396672133e+00 4.627200975050745058e+01
1.588249619314839878e+00 1.561567755461555282e-02 5.878942915850752904e+00 4.664208721560382287e+01
1.605702911834782975e+00 1.573192410517609136e-02 5.970387176307981214e+00 4.696549165099506240e+01
1.623156204354726295e+00 1.584862438659780451e-02 6.061332838914624155e+00 4.723655543918223998e+01
1.640609496874669837e+00 1.596581777864395160e-02 6.151728596075136224e+00 4.745064159156846273e+01
1.658062789394613157e+00 1.608354448197147485e-02 6.241541593966890566e+00 4.761634753847589252e+01
1.675516081914556255e+00 1.620184558451916168e-02 6.330727666715619151e+00 4.772675199780887567e+01
1.692969374434499574e+00 1.632076310085895862e-02 6.419235583314192084e+00 4.777707987199503492e+01
1.710422666954442894e+00 1.644034011803990197e-02 6.507039276749583934e+00 4.778025872339812707e+01
1.727875959474386436e+00 1.656062083249245157e-02 6.594074358862838992e+00 4.771469856133509779e+01
1.745329251994329534e+00 1.668165065059035862e-02 6.680320817003883249e+00 4.760430270550327236e+01
1.762782544514272853e+00 1.680347632194756011e-02 6.765721213729395167e+00 4.742803953795253591e+01
1.780235837034215951e+00 1.692614597643669894e-02 6.850282296414572869e+00 4.722172652204002219e+01
1.797689129554159271e+00 1.704970930284418346e-02 6.934004058984691632e+00 4.698214740287122737e+01
1.815142422074102813e+00 1.717421762237167013e-02 7.016890156672173084e+00 4.671195026930332972e+01
1.832595714594046132e+00 1.729972401542418867e-02 7.098949571182274099e+00 4.641481850284505839e+01
1.850049007113989230e+00 1.742628349414073602e-02 7.180187122176871384e+00 4.608906605841906412e+01
1.867502299633932550e+00 1.755395307591005663e-02 7.260603387694359867e+00 4.573294607457553695e+01
1.884955592153875870e+00 1.768279202165392444e-02 7.340205555277195870e+00 4.535090452115463933e+01
1.902408884673818967e+00 1.781286192000920351e-02 7.418999533570440619e+00 4.494294956770220750e+01
1.919862177193762509e+00 1.794422693245323330e-02 7.496990882539609657e+00 4.450960124469540347e+01
1.937315469713705829e+00 1.807695393960568470e-02 7.574184683192720868e+00 4.405132874522250575e+01
1.954768762233649149e+00 1.821111277591611760e-02 7.650585747961876848e+00 4.356872147426122410e+01
1.972222054753592246e+00 1.834677644722210524e-02 7.726198745743327656e+00 4.306245312374515777e+01
1.989675347273535566e+00 1.848402137279369847e-02 7.801028340249190229e+00 4.253328747845525726e+01
2.007128639793478886e+00 1.862292766283638740e-02 7.875079312486205296e+00 4.198206426461962337e+01
2.024581932313422428e+00 1.876357939961429203e-02 7.948356700308284672e+00 4.140971379517319662e+01
2.042035224833365525e+00 1.890606495963431319e-02 8.020865823376366777e+00 4.081718505496656491e+01
2.059488517353308623e+00 1.905047737101151634e-02 8.092612675478665807e+00 4.020564986150601783e+01
2.076941809873252165e+00 1.919691466726393403e-02 8.163603212151041788e+00 3.957588592812960826e+01
2.094395102393195263e+00 1.934548035630329066e-02 8.233841595126405011e+00 3.892767724879928437e+01
2.111848394913138804e+00 1.949628381389944057e-02 8.303330322204141467e+00 3.826091681141078027e+01
2.129301687433081902e+00 1.964944086539444773e-02 8.372077222391096640e+00 3.757935736860061127e+01
2.146754979953025444e+00 1.980507429724068236e-02 8.440089468134038597e+00 3.688342743519873324e+01
2.164208272472968542e+00 1.996331448971561118e-02 8.507367402660657163e+00 3.617021049824493417e+01
2.181661564992911639e+00 2.012430014036686865e-02 8.573915627684357332e+00 3.544284004301739799e+01
2.199114857512855181e+00 2.028817899565610663e-02 8.639741818525587647e+00 3.470376289616247334e+01
2.216568150032798723e+00 2.045510872016712001e-02 8.704851308312361979e+00 3.395251678598211242e+01
2.234021442552741821e+00 2.062525788120552275e-02 8.769248575224521502e+00 3.318944611136479494e+01
2.251474735072684918e+00 2.079880701175811433e-02 8.832938589796780704e+00 3.241560391047650569e+01
2.268928027592628460e+00 2.097594981854590881e-02 8.895926502259028368e+00 3.163187091565774622e+01
2.286381320112572002e+00 2.115689455489254758e-02 8.958217412430244053e+00 3.083900241579318546e+01
2.303834612632515100e+00 2.134186557728543279e-02 9.019816428084800108e+00 3.003777598064362664e+01
2.321287905152458197e+00 2.153110510189305826e-02 9.080728748209065060e+00 2.922900264199036258e+01
2.338741197672401295e+00 2.172487520858877585e-02 9.140959657497402802e+00 2.841348035193412969e+01
2.356194490192344837e+00 2.192346012163772992e-02 9.200514400360702894e+00 2.759193842628338800e+01
2.373647782712288379e+00 2.212716886549053602e-02 9.259398101889493304e+00 2.676505798699927752e+01
2.391101075232231477e+00 2.233633822164668783e-02 9.317615766647096009e+00 2.593352300792377463e+01
2.408554367752174574e+00 2.255133615587882889e-02 9.375172309187060904e+00 2.509803202344318862e+01
2.426007660272118116e+00 2.277256804158553707e-02 9.432072649838296741e+00 2.425907753344780460e+01
2.443460952792061214e+00 2.300046918893581052e-02 9.488321733448445983e+00 2.341846053475363831e+01
2.460914245312004311e+00 2.323549996937794224e-02 9.543924529383900790e+00 2.257869743837117582e+01
2.478367537831947853e+00 2.347760913756323162e-02 9.598886031529794138e+00 2.179055007187294990e+01
2.495820830351891395e+00 2.372669376902936458e-02 9.653211258289998042e+00 2.105360284510658531e+01
2.513274122871834493e+00 2.398247465429905953e-02 9.706905252587134214e+00 2.037691419848255947e+01
2.530727415391777591e+00 2.424489766389884698e-02 9.759973081862559852e+00 1.973685867069838906e+01
2.548180707911721132e+00 2.451364923769592391e-02 9.812419838076378298e+00 1.914889590577084988e+01
2.565634000431664674e+00 2.478862679897542859e-02 9.864250585660567339e+00 1.859320738148818108e+01
2.583087292951607772e+00 2.506965831303157796e-02 9.915470211833122605e+00 1.807152052967771283e+01
2.600540585471550870e+00 2.535649430433887033e-02 9.966083608557656959e+00 1.758556662191752196e+01
2.617993877991494411e+00 2.564901935037720848e-02 1.001609573104501649e+01 1.712421597159506703e+01
2.635447170511437509e+00 2.594705629642968248e-02 1.006551159775327342e+01 1.668907113876511161e+01
2.652900463031380607e+00 2.625035910191548041e-02 1.011433629038774207e+01 1.628172742381522653e+01
2.670353755551324149e+00 2.655878646964571557e-02 1.016257495390095933e+01 1.589447257021169158e+01
2.687807048071267690e+00 2.687217541642451454e-02 1.021023279649270066e+01 1.552695691541855894e+01
2.705260340591210788e+00 2.719036008854411671e-02 1.025731508960997118e+01 1.517791263884921804e+01
2.722713633111153886e+00 2.751310291659301438e-02 1.030382716652874109e+01 1.484935868674606319e+01
2.740166925631096984e+00 2.784023531692008183e-02 1.034977433165900429e+01 1.453670714983431900e+01
2.757620218151040525e+00 2.817158291559333783e-02 1.039516171665017197e+01 1.423910143813335338e+01
2.775073510670984067e+00 2.850696971202202126e-02 1.043999426761701343e+01 1.395557547525600306e+01
2.792526803190927165e+00 2.884621685029042232e-02 1.048427674518586095e+01 1.368529598109585699e+01
2.809980095710870263e+00 2.918914578168643054e-02 1.052801381719174145e+01 1.342740306357189262e+01
2.827433388230813804e+00 2.953557755854583494e-02 1.057121034562557149e+01 1.318122697676558630e+01
2.844886680750756902e+00 2.988534092208335047e-02 1.061387144198842947e+01 1.294587825866151753e+01
2.862339973270700000e+00 3.023826079083014387e-02 1.065600244449153244e+01 1.272096318226909517e+01
2.879793265790643542e+00 3.059411784702974896e-02 1.069760870057080915e+01 1.250747847422764636e+01
2.897246558310587083e+00 3.095273369390154350e-02 1.073869544628686512e+01 1.230336174411971406e+01
2.914699850830530625e+00 3.131395372521315890e-02 1.077926779933751966e+01 1.210730914324592788e+01
2.932153143350473723e+00 3.167760751888589604e-02 1.081933071585016926e+01 1.191941210936294837e+01
2.949606435870416821e+00 3.204349212174001371e-02 1.085888897080111626e+01 1.174027808331279843e+01
2.967059728390360362e+00 3.241141930155463924e-02 1.089794728099082377e+01 1.156901225798275412e+01
2.984513020910303460e+00 3.278121906126042762e-02 1.093651063542051460e+01 1.140478123061345173e+01
3.001966313430246558e+00 3.315271314280177767e-02 1.097458441001638185e+01 1.124765841158597723e+01
3.019419605950190100e+00 3.352571653321223533e-02 1.101217505507861283e+01 1.109788207027009932e+01
3.036872898470133197e+00 3.390004750586201460e-02 1.104929052153075553e+01 1.095553404969059308e+01
3.054326190990076295e+00 3.427552858664978386e-02 1.108593946014241105e+01 1.082046301440522740e+01
3.071779483510019837e+00 3.465198322410312920e-02 1.112212996262985953e+01 1.069227025070599524e+01
3.089232776029963379e+00 3.502923353794498706e-02 1.115786966671968905e+01 1.057067272125894242e+01
3.106686068549906921e+00 3.540710027665288501e-02 1.119316647229945261e+01 1.045561782298310582e+01
3.124139361069850018e+00 3.578540281745894863e-02 1.122802864710866544e+01 1.034710199472406345e+01
3.141592653589793116e+00 3.616395916634990160e-02 1.126246454251643137e+01 1.024505472318677057e+01
3.159045946109736214e+00 3.654258595806705173e-02 1.129648248090475882e+01 1.014938861820717086e+01
3.176499238629679756e+00 3.692109920722166233e-02 1.133009076390021086e+01 1.006001500892742584e+01
3.193952531149622853e+00 3.729931685669647667e-02 1.136329767795821510e+01 9.976796427439559523e+00
3.211405823669565951e+00 3.767705770452139252e-02 1.139611149336992568e+01 9.899641542818773843e+00
3.228859116189509493e+00 3.805414094781354312e-02 1.142854046347719965e+01 9.828487572775019387e+00
3.246312408709452590e+00 3.843038618277728330e-02 1.146059284141463230e+01 9.763293166369772180e+00
3.263765701229396576e+00 3.880561340470420340e-02 1.149227690473912844e+01 9.704040856164805717e+00
3.281218993749339674e+00 3.917964300785971993e-02 1.152360091610690418e+01 9.650717564826914341e+00
3.298672286269282772e+00 3.955229535918575873e-02 1.155457303368264554e+01 9.603309713819795590e+00
3.316125578789226314e+00 3.992338940938802705e-02 1.158520132946132364e+01 9.561861010190561672e+00
3.333578871309169411e+00 4.029274241849824939e-02 1.161549388710829156e+01 9.526469515460963322e+00
3.351032163829112509e+00 4.066019282855416056e-02 1.164545882959896161e+01 9.496669334327389578e+00
3.368485456349056051e+00 4.102567328206251779e-02 1.167510435852878992e+01 9.470127354201244074e+00
3.385938748868999149e+00 4.138921845964179530e-02 1.170443875765334241e+01 9.444291912551181056e+00
3.403392041388942246e+00 4.175089183256165681e-02 1.173347031856468092e+01 9.418469363799557570e+00
3.420845333908885788e+00 4.211074076906586028e-02 1.176220730554140559e+01 9.393119275008466218e+00
3.438298626428828886e+00 4.246880491214116010e-02 1.179065798607710747e+01 9.368495845088391505e+00
