# angles(rad), pulling distance(m),                                     elastic band force(n), cable force(n)
0.000000000000000000e+00 3.266374179681816683e-04 2.712106530006882718e-02 2.251891983429310864e-02
1.745329251994329547e-02 6.409881010378900732e-04 5.460223255761610661e-02 4.773436694643967693e-02
3.490658503988659095e-02 9.440226880077884179e-04 8.246324825677193993e-02 7.581675336992241276e-02
5.235987755982988295e-02 1.236503898822512637e-03 1.107240157955401982e-01 1.069862116147645009e-01
6.981317007977318190e-02 1.518832474600347645e-03 1.394047198132374321e-01 1.416160406936523286e-01
8.726646259971647390e-02 1.791226256626625695e-03 1.685267202138377163e-01 1.801742747969838909e-01
1.047197551196597659e-01 2.053969495736116761e-03 1.981129430433548888e-01 2.230852332550240791e-01
1.221730476396030718e-01 2.307370386743690018e-03 2.281878414434562463e-01 2.708248625434105938e-01
1.396263401595463638e-01 2.551725456579157642e-03 2.587773149103265169e-01 3.239491537297499169e-01
1.570796326794896558e-01 2.787346292690672921e-03 2.899087947435606272e-01 3.830429407679744602e-01
1.745329251994329478e-01 3.014673496350340435e-03 3.216118069745961816e-01 4.485192658871421933e-01
1.919862177193762398e-01 3.234313452717806330e-03 3.539181125820886620e-01 5.205695217847665646e-01
2.094395102393195318e-01 3.446836962349851281e-03 3.868609673637608548e-01 5.996656412566594430e-01
2.268928027592628516e-01 3.652749458446715326e-03 4.204750088779051209e-01 6.864014895644465764e-01
2.443460952792061436e-01 3.852509721232895510e-03 4.548005337800983261e-01 7.815001257036575666e-01
2.617993877991494078e-01 4.046531784292071304e-03 4.898839776844984284e-01 8.858176631962030312e-01
2.792526803190927276e-01 4.235192056437197400e-03 5.257590847844689774e-01 9.997686985692497696e-01
2.967059728390360474e-01 4.418833302621045026e-03 5.624422063633439661e-01 1.123502277721528664e+00
3.141592653589793116e-01 4.597768776281042392e-03 5.999472019184214355e-01 1.257493367915781368e+00
3.316125578789225758e-01 4.772285457407803716e-03 6.382882961021572044e-01 1.402311315985501849e+00
3.490658503988658956e-01 4.942646923014929437e-03 6.774793911876972885e-01 1.558519066733142555e+00
3.665191429188092154e-01 5.109096048662352396e-03 7.175341326767216144e-01 1.726692410196052796e+00
3.839724354387524796e-01 5.271856855943532309e-03 7.584660185551976852e-01 1.907427533249473450e+00
4.014257279586957439e-01 5.431136833051917849e-03 8.002883503596837089e-01 2.101326578244799403e+00
4.188790204786390636e-01 5.587128156683543109e-03 8.430142202874070234e-01 2.309007647648327666e+00
4.363323129985823834e-01 5.740009625737490379e-03 8.866566014222232450e-01 2.531098476121723451e+00
4.537856055185257032e-01 5.889947468538004813e-03 9.312283813406383448e-01 2.768247541224108765e+00
4.712388980384689674e-01 6.037096995202635187e-03 9.767423637052493612e-01 3.021106198850911362e+00
4.886921905584122872e-01 6.181603133193934105e-03 1.023211360579690865e+00 3.290351965501545184e+00
5.061454830783556069e-01 6.323601717805166743e-03 1.070648760774964403e+00 3.576711265996522116e+00
5.235987755982988157e-01 6.463220122182993313e-03 1.119068685440435251e+00 3.880951203100755809e+00
5.410520681182421354e-01 6.600577876192279154e-03 1.168485206150938538e+00 4.203801511327196039e+00
5.585053606381854552e-01 6.735787672525778147e-03 1.218911806553001798e+00 4.545941215886355025e+00
5.759586531581287749e-01 6.868955518919188374e-03 1.270361330584795612e+00 4.908053075657342390e+00
5.934119456780720947e-01 7.000181525506989771e-03 1.322845895161788299e+00 5.290795065349692905e+00
6.108652381980153034e-01 7.129560464491199907e-03 1.376376950516949416e+00 5.694814883022218943e+00
6.283185307179586232e-01 7.257181850524321680e-03 1.430967511715742102e+00 6.121021088231151985e+00
6.457718232379019430e-01 7.383130628275974550e-03 1.486634775551575194e+00 6.570678315063504193e+00
6.632251157578451517e-01 7.507487569624807580e-03 1.543400269711845851e+00 7.045194103924478313e+00
6.806784082777884715e-01 7.630329301713039032e-03 1.601256249127375630e+00 7.541594132030066788e+00
6.981317007977317912e-01 7.751728773815782549e-03 1.660176198135221881e+00 8.057489480298691831e+00
7.155849933176750000e-01 7.871755689475470885e-03 1.720132922130273023e+00 8.592533956248574967e+00
7.330382858376184307e-01 7.990476522852152028e-03 1.781099927499125046e+00 9.146526835586474391e+00
7.504915783575616395e-01 8.107954678407715970e-03 1.843049364975749338e+00 9.718902281190080927e+00
7.679448708775049592e-01 8.224250989798653419e-03 1.905941898958123160e+00 1.030725000775854205e+01
7.853981633974482790e-01 8.339423817037167411e-03 1.969757107491311388e+00 1.091407266698169387e+01
8.028514559173914877e-01 8.453529051216860171e-03 2.034472682092570484e+00 1.153865285661163931e+01
8.203047484373349185e-01 8.566620349914845847e-03 2.100064427751349161e+00 1.218014943660464056e+01
8.377580409572781273e-01 8.678749476787553374e-03 2.166506262929288607e+00 1.283757896348672034e+01
8.552113334772214470e-01 8.789966328016419334e-03 2.233770248691481441e+00 1.350984932083708223e+01
8.726646259971647668e-01 8.900318936169203735e-03 2.301827600523910888e+00 1.419597538189225183e+01
8.901179185171079755e-01 9.009853659707285287e-03 2.370649936888094000e+00 1.489515489592842279e+01
9.075712110370514063e-01 9.118615454742627288e-03 2.440209354105076667e+00 1.560654092770569612e+01
9.250245035569946150e-01 9.226647896022057913e-03 2.510478412060438203e+00 1.632925729933915804e+01
9.424777960769379348e-01 9.333993176995040650e-03 2.581429933536812715e+00 1.706235986425823370e+01
9.599310885968812546e-01 9.440692196878739534e-03 2.653035797156283682e+00 1.780456087373789131e+01
9.773843811168245743e-01 9.546784818462640543e-03 2.725267459274734350e+00 1.855459836526579664e+01
9.948376736367677831e-01 9.652309915600176815e-03 2.798098470654202696e+00 1.931183643370478009e+01
1.012290966156711214e+00 9.757305373208725180e-03 2.871505311250068360e+00 2.007592875484100503e+01
1.029744258676654312e+00 9.861808098918189297e-03 2.945461933023203915e+00 2.084504616017272127e+01
1.047197551196597631e+00 9.965854196822889269e-03 3.019933684584757305e+00 2.161539506236528752e+01
1.064650843716540951e+00 1.006947910095772405e-02 3.094894311085337968e+00 2.238797887910905260e+01
1.082104136236484271e+00 1.017271757871560968e-02 3.170318472042858549e+00 2.316177223018922149e+01
1.099557428756427591e+00 1.027560373084747403e-02 3.246179120073099611e+00 2.393492676792571316e+01
1.117010721276370910e+00 1.037817102472004573e-02 3.322449217497730700e+00 2.470607500103959708e+01
1.134464013796314230e+00 1.048045247396404110e-02 3.399101453741505185e+00 2.547370315678707087e+01
1.151917306316257550e+00 1.058248069885796977e-02 3.476108587709384690e+00 2.623638311642925203e+01
1.169370598836200648e+00 1.068428792637310908e-02 3.553443533285427502e+00 2.699271642706342078e+01
1.186823891356144189e+00 1.078590599017963114e-02 3.631079603925065680e+00 2.774140168279623708e+01
1.204277183876087287e+00 1.088736637808563994e-02 3.708990244691505289e+00 2.848104689172716064e+01
1.221730476396030607e+00 1.098870039385694240e-02 3.787149911111197031e+00 2.921056384480553803e+01
1.239183768915973927e+00 1.108993919169065645e-02 3.865524928152899609e+00 2.992534370239431496e+01
1.256637061435917246e+00 1.119111377621521269e-02 3.944088555566282128e+00 3.062645675502515630e+01
1.274090353955860566e+00 1.129225500256408540e-02 4.022815559068008362e+00 3.131306847250589342e+01
1.291543646475803886e+00 1.139339363106009473e-02 4.101681515849493032e+00 3.198412337311521725e+01
1.308996938995747206e+00 1.149456047875724654e-02 4.180659137741890241e+00 3.263702726311890956e+01
1.326450231515690303e+00 1.159578644547567920e-02 4.259714198217745107e+00 3.326734971933235840e+01
1.343903524035633845e+00 1.169710251380166183e-02 4.338823638596846166e+00 3.387832903746691926e+01
1.361356816555576943e+00 1.179853974933611251e-02 4.417965124144243028e+00 3.446903113823747589e+01
1.378810109075520263e+00 1.190012936575095617e-02 4.497103525855547623e+00 3.503247653905710735e+01
1.396263401595463582e+00 1.200190287654256775e-02 4.576212782650634914e+00 3.557121979538765544e+01
1.413716694115406902e+00 1.210389211662912801e-02 4.655271704239613229e+00 3.608623422711167450e+01
1.431169986635350000e+00 1.220612924235061660e-02 4.734246979467241268e+00 3.657071299300113765e+01
1.448623279155293542e+00 1.230864673273088239e-02 4.813110705913316245e+00 3.702586209024971708e+01
1.466076571675236861e+00 1.241147748217126014e-02 4.891842427469727639e+00 3.745408625274065884e+01
1.483529864195180181e+00 1.251465495483946970e-02 4.970408330723097734e+00 3.784785670192612628e+01
1.500983156715123279e+00 1.261821319928665107e-02 5.048781001188496376e+00 3.820907275614624155e+01
1.518436449235066599e+00 1.272218684844735742e-02 5.126939917718823736e+00 3.854015631072295633e+01
1.535889741755009918e+00 1.282661112851554708e-02 5.204851045711068380e+00 3.883347969822315804e+01
1.553343034274953460e+00 1.293152201652454994e-02 5.282486951884256321e+00 3.909133447830349439e+01
1.570796326794896558e+00 1.303695637571680548e-02 5.359826952395415844e+00 3.931631229266669436e+01
1.588249619314839878e+00 1.314295195994564028e-02 5.436845308370612528e+00 3.950512565109821139e+01
1.605702911834782975e+00 1.324954741367526632e-02 5.513539913067985410e+00 3.966949333397384692e+01
1.623156204354726295e+00 1.335678233292402969e-02 5.589914595227956084e+00 3.981240005613597788e+01
1.640609496874669837e+00 1.346469751198460865e-02 5.665973638706081950e+00 3.993400549243811781e+01
1.658062789394613157e+00 1.357333500584976052e-02 5.741714889620508799e+00 4.003080821006977175e+01
1.675516081914556255e+00 1.368273813021231994e-02 5.817142184019487239e+00 4.010592006684134958e+01
1.692969374434499574e+00 1.379295148366770432e-02 5.892258948892034276e+00 4.015914734064018887e+01
1.710422666954442894e+00 1.390402120913051057e-02 5.967068809194424617e+00 4.019057237879555800e+01
1.727875959474386436e+00 1.401599516407673121e-02 6.041571726264605147e+00 4.019816193074700550e+01
1.745329251994329534e+00 1.412892292345325693e-02 6.115769471238080790e+00 4.018288382314365492e+01
1.762782544514272853e+00 1.424285579898981226e-02 6.189665265176418352e+00 4.014558807795657458e+01
1.780235837034215951e+00 1.435784714193754155e-02 6.263262090689875272e+00 4.008616609017985155e+01
1.797689129554159271e+00 1.447395258337014906e-02 6.336562749342530942e+00 4.000451808197858128e+01
1.815142422074102813e+00 1.459123004079912293e-02 6.409570000088630870e+00 3.990068461831662461e+01
1.832595714594046132e+00 1.470973977575139660e-02 6.482284780269187863e+00 3.977377158550434899e+01
1.850049007113989230e+00 1.482954483812144730e-02 6.554708718973141224e+00 3.962418725002539333e+01
1.867502299633932550e+00 1.495071127294036496e-02 6.626844523031294898e+00 3.945257271550838851e+01
1.884955592153875870e+00 1.507330812415456391e-02 6.698694749470053722e+00 3.925898013095220307e+01
1.902408884673818967e+00 1.519740771936766571e-02 6.770261901590973963e+00 3.904350877032302236e+01
1.919862177193762509e+00 1.532308620577097977e-02 6.841548413480482260e+00 3.880617409371969018e+01
1.937315469713705829e+00 1.545042360939987390e-02 6.912556674376073573e+00 3.854708937054876117e+01
1.954768762233649149e+00 1.557950402131807154e-02 6.983289041393405228e+00 3.826642293154304753e+01
1.972222054753592246e+00 1.571041632548474815e-02 7.053747855781717035e+00 3.796424744611464774e+01
1.989675347273535566e+00 1.584325437659946448e-02 7.123935458052060632e+00 3.764071697329835331e+01
2.007128639793478886e+00 1.597811723214943164e-02 7.193854204659268170e+00 3.729605659123872385e+01
2.024581932313422428e+00 1.611511004336691616e-02 7.263506479918619974e+00 3.693038694447961490e+01
2.042035224833365525e+00 1.625434427406909771e-02 7.332894724159290334e+00 3.654393661278771077e+01
2.059488517353308623e+00 1.639593823322087196e-02 7.402021408195806451e+00 3.613693678608208160e+01
2.076941809873252165e+00 1.654001807021086845e-02 7.470889164553950579e+00 3.570960278077847505e+01
2.094395102393195263e+00 1.668671801451352549e-02 7.539500542611408562e+00 3.526214849995339051e+01
2.111848394913138804e+00 1.683618154585021440e-02 7.607856972950058250e+00 3.479416955741423578e+01
2.129301687433081902e+00 1.698856204448919924e-02 7.675959906190195525e+00 3.430592429571564139e+01
2.146754979953025444e+00 1.714402390357109771e-02 7.743811972831964319e+00 3.379823508768883755e+01
2.164208272472968542e+00 1.730274387737065767e-02 7.811416011693562922e+00 3.327138097222370305e+01
2.181661564992911639e+00 1.746491184970340449e-02 7.878775399267594182e+00 3.272591240390379852e+01
2.199114857512855181e+00 1.763073204058174248e-02 7.945892858124881108e+00 3.216183349957017157e+01
2.216568150032798723e+00 1.780042575458418153e-02 8.012768485351742243e+00 3.157800637646660391e+01
2.234021442552741821e+00 1.797423494189981721e-02 8.079404499310486543e+00 3.097530799777009491e+01
2.251474735072684918e+00 1.815241673603490077e-02 8.145805287507901227e+00 3.035595719634092404e+01
2.268928027592628460e+00 1.833524694384851619e-02 8.211973645465917571e+00 2.972007843851065445e+01
2.286381320112572002e+00 1.852306226704722794e-02 8.277908978511977267e+00 2.906081762272850355e+01
2.303834612632515100e+00 1.871616456415243698e-02 8.343615068592860951e+00 2.839046098962194620e+01
2.321287905152458197e+00 1.891470770133615517e-02 8.409095307643363881e+00 2.773349805757489506e+01
2.338741197672401295e+00 1.911884598405822963e-02 8.474350011249578429e+00 2.708904919085080110e+01
2.356194490192344837e+00 1.932870410362198810e-02 8.539382940733048599e+00 2.646269249774340082e+01
2.373647782712288379e+00 1.954429260762417450e-02 8.604197562115997400e+00 2.586769688271436962e+01
2.391101075232231477e+00 1.976550550282774391e-02 8.668794108841403556e+00 2.531381198141233924e+01
2.408554367752174574e+00 1.999225724607218632e-02 8.733174327571671114e+00 2.479556123246673494e+01
2.426007660272118116e+00 2.022448463365320373e-02 8.797341550388761533e+00 2.430811375617366821e+01
2.443460952792061214e+00 2.046213134474781162e-02 8.861298479814733398e+00 2.384806584890490555e+01
2.460914245312004311e+00 2.070512952449127947e-02 8.925047408156732587e+00 2.341425801099325810e+01
2.478367537831947853e+00 2.095338566642337974e-02 8.988590651489266392e+00 2.300705225413290123e+01
2.495820830351891395e+00 2.120680485702670232e-02 9.051930490592221545e+00 2.262448315300265023e+01
2.513274122871834493e+00 2.146531898806841934e-02 9.115069133257392764e+00 2.226234560385411854e+01
2.530727415391777591e+00 2.172887089150633139e-02 9.178008956660892892e+00 2.191834911425953081e+01
2.548180707911721132e+00 2.199739371113314246e-02 9.240752672251426603e+00 2.159217448692087871e+01
2.565634000431664674e+00 2.227080313812855941e-02 9.303302985809613901e+00 2.128399614030043097e+01
2.583087292951607772e+00 2.254899910529147358e-02 9.365662214976287814e+00 2.099367155884562308e+01
2.600540585471550870e+00 2.283191109500555191e-02 9.427832249585046398e+00 2.071770298016085832e+01
2.617993877991494411e+00 2.311948886312645626e-02 9.489814493546635532e+00 2.045359768012166768e+01
2.635447170511437509e+00 2.341166185442402486e-02 9.551609837948287662e+00 2.020190219858766767e+01
2.652900463031380607e+00 2.370832527383868321e-02 9.613218241298383759e+00 1.996387111262277614e+01
2.670353755551324149e+00 2.400939992818747204e-02 9.674638282166963421e+00 1.973652282237743805e+01
2.687807048071267690e+00 2.431483444907772337e-02 9.735867157296999252e+00 1.951698821466653300e+01
2.705260340591210788e+00 2.462456117882036097e-02 9.796901384664428392e+00 1.930560875726691350e+01
2.722713633111153886e+00 2.493847484426492400e-02 9.857737678626801170e+00 1.910424085461824717e+01
2.740166925631096984e+00 2.525650469000955897e-02 9.918373004725244968e+00 1.891029378388652304e+01
2.757620218151040525e+00 2.557859090448590111e-02 9.978804575662673315e+00 1.872277699203342038e+01
2.775073510670984067e+00 2.590465871107427639e-02 1.003902972117339587e+01 1.854221770833668614e+01
2.792526803190927165e+00 2.623461752503420535e-02 1.009904573275223072e+01 1.836909395927336064e+01
2.809980095710870263e+00 2.656839409889952264e-02 1.015884985455535805e+01 1.820202919114005979e+01
2.827433388230813804e+00 2.690592602940893377e-02 1.021843928340033436e+01 1.804009948528150886e+01
2.844886680750756902e+00 2.724713401148979100e-02 1.027781116876608181e+01 1.788390244569875875e+01
2.862339973270700000e+00 2.759193442475974326e-02 1.033696261279289530e+01 1.773333911056432655e+01
2.879793265790643542e+00 2.794024833699044336e-02 1.039589067028243896e+01 1.758786030538052003e+01
2.897246558310587083e+00 2.829200639537440137e-02 1.045459234869774612e+01 1.744671098185643388e+01
2.914699850830530625e+00 2.864714056551482396e-02 1.051306460816322286e+01 1.730958869158594027e+01
2.932153143350473723e+00 2.900557603682475324e-02 1.057130440558894158e+01 1.717660991690114969e+01
2.949606435870416821e+00 2.936723518193139551e-02 1.062930883412001037e+01 1.704773660352373454e+01
2.967059728390360362e+00 2.973203971875160168e-02 1.068707501906949275e+01 1.692280357864095919e+01
2.984513020910303460e+00 3.009991041797294500e-02 1.074460008087057439e+01 1.680165843564790507e+01
3.001966313430246558e+00 3.047076776738349979e-02 1.080188113507656666e+01 1.668412773289926321e+01
3.019419605950190100e+00 3.084453689489773109e-02 1.085891529236090136e+01 1.656982979949825463e+01
3.036872898470133197e+00 3.122114894977578645e-02 1.091569965851712887e+01 1.645834428909476088e+01
3.054326190990076295e+00 3.160053393662132226e-02 1.097223133445892529e+01 1.634958281600592755e+01
3.071779483510019837e+00 3.198261562853754042e-02 1.102850741622008179e+01 1.624367767913949834e+01
3.089232776029963379e+00 3.236731362482213326e-02 1.108452499495451882e+01 1.614066768310753375e+01
3.106686068549906921e+00 3.275454899879835791e-02 1.114028114840037276e+01 1.604035340992163228e+01
3.124139361069850018e+00 3.314424520288049292e-02 1.119577290626522270e+01 1.594249861087615372e+01
3.141592653589793116e+00 3.353632742950187623e-02 1.125099724145296243e+01 1.584690150870634540e+01
3.159045946109736214e+00 3.393072126116844500e-02 1.130595107006380751e+01 1.575342329167465572e+01
3.176499238629679756e+00 3.432735249901545938e-02 1.136063130229226026e+01 1.566195242823429012e+01
3.193952531149622853e+00 3.472614715483650361e-02 1.141503512921847197e+01 1.557246533928778121e+01
3.211405823669565951e+00 3.512703120612082480e-02 1.146916012316837374e+01 1.548498176188771502e+01
3.228859116189509493e+00 3.552993031099900556e-02 1.152300416802223104e+01 1.539951679619082192e+01
3.246312408709452590e+00 3.593476979219578649e-02 1.157656471306969692e+01 1.531587566450495963e+01
3.263765701229396576e+00 3.634147463703007314e-02 1.162983832090269587e+01 1.523373654723482851e+01
3.281218993749339674e+00 3.674996949741492908e-02 1.168282094954775019e+01 1.515286051122839872e+01
3.298672286269282772e+00 3.716017868985758282e-02 1.173550927743355921e+01 1.507339114061461771e+01
3.316125578789226314e+00 3.757202619545942091e-02 1.178790104105995695e+01 1.499557279318889158e+01
3.333578871309169411e+00 3.798543565991600174e-02 1.183999416292129325e+01 1.491940344368585869e+01
3.351032163829112509e+00 3.840033039351703481e-02 1.189178593764468772e+01 1.484464970176165544e+01
3.368485456349056051e+00 3.881663384496947949e-02 1.194327325063382972e+01 1.477112538521607199e+01
3.385938748868999149e+00 3.923427084703272338e-02 1.199445300443485962e+01 1.469872517790118494e+01
3.403392041388942246e+00 3.965316549171304245e-02 1.204532216256446731e+01 1.462743450151204527e+01
3.420845333908885788e+00 4.007324048060644656e-02 1.209587775381853270e+01 1.455726400641221296e+01
3.438298626428828886e+00 4.049441712489868644e-02 1.214611684421178239e+01 1.448821700663720335e+01
