# angles(rad), pulling distance(m),                                     elastic band force(n), cable force(n)
0.000000000000000000e+00 3.139717718902910711e-04 2.567935063948643612e-02 2.100281325596722870e-02
1.745329251994329547e-02 6.178997562985538271e-04 5.175607998162334855e-02 4.440621985232665742e-02
3.490658503988659095e-02 9.124820790637996112e-04 7.825468675919668160e-02 7.039255286837503567e-02
5.235987755982988295e-02 1.198362254195658571e-03 1.051998703073317581e-01 9.915447314119002487e-02
6.981317007977318190e-02 1.476113913157188354e-03 1.326165305634932068e-01 1.309047937428785557e-01
8.726646259971647390e-02 1.746097238659097533e-03 1.605298728383688367e-01 1.659704456765778990e-01
1.047197551196597659e-01 2.008525998855587372e-03 1.889664560600245458e-01 2.047626315739504432e-01
1.221730476396030718e-01 2.263603652063137309e-03 2.179548040509463602e-01 2.476951479940540657e-01
1.396263401595463638e-01 2.511533308626930257e-03 2.475260017915697497e-01 2.952305281413982740e-01
1.570796326794896558e-01 2.752517848356682978e-03 2.777146861156555846e-01 3.478995374852682509e-01
1.745329251994329478e-01 2.986747975663171014e-03 3.085554587843235552e-01 4.062709126905835744e-01
1.919862177193762398e-01 3.214419041228885800e-03 3.400719416135735140e-01 4.707612485557716164e-01
2.094395102393195318e-01 3.435733800472511035e-03 3.722774998744435293e-01 5.417354338406041858e-01
2.268928027592628516e-01 3.650896609862908700e-03 4.051844179039498228e-01 6.196875038290674542e-01
2.443460952792061436e-01 3.860114256705482385e-03 4.388055586781535178e-01 7.051576998149829967e-01
2.617993877991494078e-01 4.063590607313798814e-03 4.731534507096357700e-01 7.987082327116207248e-01
2.792526803190927276e-01 4.261537025373363270e-03 5.082402241440658885e-01 9.008755889404773676e-01
2.967059728390360474e-01 4.454209424202935572e-03 5.440781993775193337e-01 1.012011121094774646e+00
3.141592653589793116e-01 4.641925508292136550e-03 5.806799885084800161e-01 1.132237900395172803e+00
3.316125578789225758e-01 4.824997899817595574e-03 6.180582185322053279e-01 1.261900938085358526e+00
3.490658503988658956e-01 5.003700677461735830e-03 6.562254705952219602e-01 1.401563158478459803e+00
3.665191429188092154e-01 5.178289188085532374e-03 6.951945449444212333e-01 1.551710809165030014e+00
3.839724354387524796e-01 5.349000266978641907e-03 7.349785706275363539e-01 1.712859324654260940e+00
4.014257279586957439e-01 5.516051920127786577e-03 7.755906233116093285e-01 1.885544181181027845e+00
4.188790204786390636e-01 5.679646477184841988e-03 8.170433958366659644e-01 2.070283672023704113e+00
4.363323129985823834e-01 5.839971980166755276e-03 8.593493293847710435e-01 2.267610264579181578e+00
4.537856055185257032e-01 5.997203549997547067e-03 9.025208868499912107e-01 2.478079457715569589e+00
4.712388980384689674e-01 6.151504376827537403e-03 9.465705894346276850e-01 2.702263740031702888e+00
4.886921905584122872e-01 6.303027087168450518e-03 9.915110561107781662e-01 2.940745283391998033e+00
5.061454830783556069e-01 6.451914423311946693e-03 1.037355020338007527e+00 3.194124340936414619e+00
5.235987755982988157e-01 6.598300416699822736e-03 1.084115178346846564e+00 3.462995049325383601e+00
5.410520681182421354e-01 6.742310768233385383e-03 1.131803815377131706e+00 3.747937614639660797e+00
5.585053606381854552e-01 6.884063914877405765e-03 1.180432751602636277e+00 4.049517795914306717e+00
5.759586531581287749e-01 7.023671365933062058e-03 1.230013863487585457e+00 4.368352442829444016e+00
5.934119456780720947e-01 7.161238352423906356e-03 1.280560250340404327e+00 4.705176398289167672e+00
6.108652381980153034e-01 7.296864475330331647e-03 1.332086392674788122e+00 5.060770860346202049e+00
6.283185307179586232e-01 7.430643844474645390e-03 1.384607747497755836e+00 5.435925977383826435e+00
6.457718232379019430e-01 7.562665774359096475e-03 1.438135704030692574e+00 5.830884726590111811e+00
6.632251157578451517e-01 7.693015053684990577e-03 1.492674160518890236e+00 6.245385104967334122e+00
6.806784082777884715e-01 7.821772118585734387e-03 1.548219459090820482e+00 6.678958717827612190e+00
6.981317007977317912e-01 7.949013759666294712e-03 1.604760385758134067e+00 7.130891940659133788e+00
7.155849933176750000e-01 8.074813302975271737e-03 1.662278170415661727e+00 7.600230917535797381e+00
7.330382858376184307e-01 8.199240648152373787e-03 1.720746486841414846e+00 8.085774870302527617e+00
7.504915783575616395e-01 8.322362466981337095e-03 1.780134368258371236e+00 8.586488550436151002e+00
7.679448708775049592e-01 8.444242267783876044e-03 1.840416176068954579e+00 9.102707215367052740e+00
7.853981633974482790e-01 8.564940476038970449e-03 1.901567741366121833e+00 9.634264301370022210e+00
8.028514559173914877e-01 8.684515610334441263e-03 1.963564671420691132e+00 1.018062679243031354e+01
8.203047484373349185e-01 8.803025172588525848e-03 2.026382349681339790e+00 1.074112772456496323e+01
8.377580409572781273e-01 8.920525669629803325e-03 2.089995935774604963e+00 1.131502757373574575e+01
8.552113334772214470e-01 9.037071062327598631e-03 2.154380366218323406e+00 1.190167621621643868e+01
8.726646259971647668e-01 9.152707759849285432e-03 2.219510652609248957e+00 1.250099384972840610e+01
8.901179185171079755e-01 9.267473611608902442e-03 2.285362639827863696e+00 1.311327969430018214e+01
9.075712110370514063e-01 9.381397989426817907e-03 2.351913098828330995e+00 1.373901699128899523e+01
9.250245035569946150e-01 9.494507152754618970e-03 2.419138538554529649e+00 1.437793784590314949e+01
9.424777960769379348e-01 9.606832825439677592e-03 2.487013555676080401e+00 1.502827302413257904e+01
9.599310885968812546e-01 9.718412964841376123e-03 2.555511936605361800e+00 1.568813509658123451e+01
9.773843811168245743e-01 9.829291651938560845e-03 2.624609353109978116e+00 1.635604915440565676e+01
9.948376736367677831e-01 9.939515265476856973e-03 2.694282497184451675e+00 1.703075471558939924e+01
1.012290966156711214e+00 1.004912775580836699e-02 2.764507291091726326e+00 1.771120738019287089e+01
1.029744258676654312e+00 1.015817035241295060e-02 2.835258983866545623e+00 1.839642294020183400e+01
1.047197551196597631e+00 1.026668157718689869e-02 2.906512066855412968e+00 1.908539378660798391e+01
1.064650843716540951e+00 1.037469812034647054e-02 2.978240259702362280e+00 1.977695133021397211e+01
1.082104136236484271e+00 1.048225624530171179e-02 3.050420144815763734e+00 2.047069672254240302e+01
1.099557428756427591e+00 1.058939191519879877e-02 3.123030409935910967e+00 2.116606600411934735e+01
1.117010721276370910e+00 1.069614079291338234e-02 3.196046731973462229e+00 2.186098649699948027e+01
1.134464013796314230e+00 1.080253818838915539e-02 3.269439652685837583e+00 2.255259389860811226e+01
1.151917306316257550e+00 1.090861887877225822e-02 3.343184601184189031e+00 2.324107953525140502e+01
1.169370598836200648e+00 1.101441707004318683e-02 3.417257904320260220e+00 2.392551116423542013e+01
1.186823891356144189e+00 1.111996639701678426e-02 3.491635397385239870e+00 2.460452330685356515e+01
1.204277183876087287e+00 1.122529994082644561e-02 3.566292775043775620e+00 2.527685454393026276e+01
1.221730476396030607e+00 1.133045044097162959e-02 3.641205597673141448e+00 2.594119749491605731e+01
1.239183768915973927e+00 1.143545043641747833e-02 3.716349399016326771e+00 2.659625076894114670e+01
1.256637061435917246e+00 1.154033226814718364e-02 3.791699747735827852e+00 2.724074260715057960e+01
1.274090353955860566e+00 1.164512807932706340e-02 3.867232282850396885e+00 2.787342880520337118e+01
1.291543646475803886e+00 1.174986986465944606e-02 3.942922807557639686e+00 2.849310762052853363e+01
1.308996938995747206e+00 1.185458958855482338e-02 4.018747141071313145e+00 2.909851288723313800e+01
1.326450231515690303e+00 1.195931920244990357e-02 4.094681510473218822e+00 2.968855196114056838e+01
1.343903524035633845e+00 1.206409064480761656e-02 4.170697480983879046e+00 3.026011760350781543e+01
1.361356816555576943e+00 1.216893585244676820e-02 4.246770091216462539e+00 3.081331928955652799e+01
1.378810109075520263e+00 1.227388689269937917e-02 4.322875419263853658e+00 3.134736455200557970e+01
1.396263401595463582e+00 1.237897604888766809e-02 4.398989737333725003e+00 3.186114687738195883e+01
1.413716694115406902e+00 1.248423582175832262e-02 4.475089533887020465e+00 3.235361371196009372e+01
1.431169986635350000e+00 1.258969892971872721e-02 4.551151220376096873e+00 3.282363321006963730e+01
1.448623279155293542e+00 1.269539837182125097e-02 4.627151764557401847e+00 3.327037921115471164e+01
1.466076571675236861e+00 1.280136757522768419e-02 4.703061256706314808e+00 3.368969286034406707e+01
1.483529864195180181e+00 1.290764041628370343e-02 4.778855004634248616e+00 3.408277486573112469e+01
1.500983156715123279e+00 1.301425122051887671e-02 4.854509688512960608e+00 3.444926604816146920e+01
1.518436449235066599e+00 1.312123478345015963e-02 4.930002046040859121e+00 3.478828587079729573e+01
1.535889741755009918e+00 1.322862653466035446e-02 5.005308623581653293e+00 3.509884676706622031e+01
1.553343034274953460e+00 1.333646261558359136e-02 5.080406225659770847e+00 3.538021058103770855e+01
1.570796326794896558e+00 1.344477987997296647e-02 5.155266568371946967e+00 3.562913301554941370e+01
1.588249619314839878e+00 1.355361590044951679e-02 5.229870442954353216e+00 3.584921581108951472e+01
1.605702911834782975e+00 1.366300911582636265e-02 5.304220960164625076e+00 3.605082549472928122e+01
1.623156204354726295e+00 1.377299897662129062e-02 5.378323852561586627e+00 3.623509938479394776e+01
1.640609496874669837e+00 1.388362595124339495e-02 5.452185454124350628e+00 3.640225641480821395e+01
1.658062789394613157e+00 1.399493152980961844e-02 5.525811929862572747e+00 3.655217134925025846e+01
1.675516081914556255e+00 1.410695837514092631e-02 5.599209428933073163e+00 3.668477565714341893e+01
1.692969374434499574e+00 1.421975052044588753e-02 5.672384013097872213e+00 3.679993320982021032e+01
1.710422666954442894e+00 1.433335338268766981e-02 5.745341756023038648e+00 3.689758854499942942e+01
1.727875959474386436e+00 1.444781377111352232e-02 5.818087362481049851e+00 3.697701007572126031e+01
1.745329251994329534e+00 1.456318009634830803e-02 5.890626959046420197e+00 3.703885880534966901e+01
1.762782544514272853e+00 1.467950258692534392e-02 5.962966628334158692e+00 3.708302940623867983e+01
1.780235837034215951e+00 1.479683329930391901e-02 6.035112454461304843e+00 3.710948011569804095e+01
1.797689129554159271e+00 1.491522616302849713e-02 6.107070486753809035e+00 3.711818106881442958e+01
1.815142422074102813e+00 1.503473732186391687e-02 6.178846758706548314e+00 3.710905237877932450e+01
1.832595714594046132e+00 1.515542528962973874e-02 6.250447287644853134e+00 3.708201738592045871e+01
1.850049007113989230e+00 1.527735095488358744e-02 6.321878080164625047e+00 3.703705536806810272e+01
1.867502299633932550e+00 1.540057782428778076e-02 6.393145135764108034e+00 3.697413007804306773e+01
1.884955592153875870e+00 1.552517240592077123e-02 6.464254450839894695e+00 3.689315381537556249e+01
1.902408884673818967e+00 1.565120424307669261e-02 6.535212022502888018e+00 3.679409789495527860e+01
1.919862177193762509e+00 1.577874608960559699e-02 6.606023852168065424e+00 3.667695336979544862e+01
1.937315469713705829e+00 1.590787444384919244e-02 6.676695949669285035e+00 3.654163408997700202e+01
1.954768762233649149e+00 1.603866964999905304e-02 6.747234335163179608e+00 3.638810859826669741e+01
1.972222054753592246e+00 1.617121610590826347e-02 6.817645048020148479e+00 3.621637746132491031e+01
1.989675347273535566e+00 1.630560291309845339e-02 6.887934133851094209e+00 3.602634839348295515e+01
2.007128639793478886e+00 1.644192400843227236e-02 6.958107691969820152e+00 3.581802019145482063e+01
2.024581932313422428e+00 1.658027857174609529e-02 7.028171786197018100e+00 3.559134433145560195e+01
2.042035224833365525e+00 1.672077173206903966e-02 7.098131767059012276e+00 3.534586035632563750e+01
2.059488517353308623e+00 1.686351472260780304e-02 7.167993212053307417e+00 3.508167802939127000e+01
2.076941809873252165e+00 1.700862572824215352e-02 7.237762167487181486e+00 3.479895297375443874e+01
2.094395102393195263e+00 1.715623038315700413e-02 7.307444761758509877e+00 3.449767277241351593e+01
2.111848394913138804e+00 1.730646239183610338e-02 7.377047141162012878e+00 3.417780528339084611e+01
2.129301687433081902e+00 1.745946451754371367e-02 7.446575515366019360e+00 3.383928730246472583e+01
2.146754979953025444e+00 1.761538912972991644e-02 7.516036114671449830e+00 3.348210174176251996e+01
2.164208272472968542e+00 1.777439951861217379e-02 7.585435279154428834e+00 3.310619352065259591e+01
2.181661564992911639e+00 1.793667061825134773e-02 7.654778930055616826e+00 3.271132808194808206e+01
2.199114857512855181e+00 1.810239059143453622e-02 7.724071538378692203e+00 3.229671436023289743e+01
2.216568150032798723e+00 1.827176187507878469e-02 7.793319273917203027e+00 3.186311755072556551e+01
2.234021442552741821e+00 1.844500292851600914e-02 7.862528657687541056e+00 3.141061269708616166e+01
2.251474735072684918e+00 1.862235006247709920e-02 7.931706298577100078e+00 3.093913714358670930e+01
2.268928027592628460e+00 1.880405949826315440e-02 8.000858473216103661e+00 3.044843323674282587e+01
2.286381320112572002e+00 1.899040881150424603e-02 8.069990071763152528e+00 2.993793238175401328e+01
2.303834612632515100e+00 1.918170154386697815e-02 8.139106635313474669e+00 2.940765569367161447e+01
2.321287905152458197e+00 1.937826012128935141e-02 8.208214650706240789e+00 2.885925569196689366e+01
2.338741197672401295e+00 1.958035253129598516e-02 8.277321024533138782e+00 2.830465730938831115e+01
2.356194490192344837e+00 1.978812094925317885e-02 8.346431759775231995e+00 2.776302776126767569e+01
2.373647782712288379e+00 2.000157824737501533e-02 8.415551118230398586e+00 2.725029780929521905e+01
2.391101075232231477e+00 2.022065375330290432e-02 8.484685627890497628e+00 2.677545250984752556e+01
2.408554367752174574e+00 2.044522487634335348e-02 8.553842378003285063e+00 2.634158532186627966e+01
2.426007660272118116e+00 2.067522039863570887e-02 8.623026902892604539e+00 2.593876669590622086e+01
2.443460952792061214e+00 2.091057924574950266e-02 8.692244114888175943e+00 2.556321595706037542e+01
2.460914245312004311e+00 2.115123055825590681e-02 8.761501242769309528e+00 2.521475597541304836e+01
2.478367537831947853e+00 2.139711025896679983e-02 8.830805067706592126e+00 2.489056911563440622e+01
2.495820830351891395e+00 2.164814493578836110e-02 8.900158995924083882e+00 2.458867420003302939e+01
2.513274122871834493e+00 2.190422411334733491e-02 8.969570370942724580e+00 2.431241066565075215e+01
2.530727415391777591e+00 2.216526781533905907e-02 9.039046513521000747e+00 2.405720113350890799e+01
2.548180707911721132e+00 2.243120939929353283e-02 9.108590821254233916e+00 2.381916485831902008e+01
2.565634000431664674e+00 2.270197943351661904e-02 9.178209965082514188e+00 2.359859064459057620e+01
2.583087292951607772e+00 2.297751535491456693e-02 9.247911472878735495e+00 2.339416836669520805e+01
2.600540585471550870e+00 2.325774480874441205e-02 9.317699936291644391e+00 2.320483989849266138e+01
2.617993877991494411e+00 2.354255169353925564e-02 9.387581278343322566e+00 2.303374017177928579e+01
2.635447170511437509e+00 2.383186251316736157e-02 9.457561227920489699e+00 2.287642262061304876e+01
2.652900463031380607e+00 2.412561432564764435e-02 9.527639852809803855e+00 2.272952441341444541e+01
2.670353755551324149e+00 2.442374572456799259e-02 9.597811583757488663e+00 2.259054412185378879e+01
2.687807048071267690e+00 2.472618424659776826e-02 9.668066306466934989e+00 2.245835989869416949e+01
2.705260340591210788e+00 2.503281407266698053e-02 9.738393226017356241e+00 2.233543963208225591e+01
2.722713633111153886e+00 2.534356370922711404e-02 9.808782139876303319e+00 2.221819239268310042e+01
2.740166925631096984e+00 2.565838534445888039e-02 9.879222851024641372e+00 2.210456351599781044e+01
2.757620218151040525e+00 2.597720381925299263e-02 9.949705147553139284e+00 2.199615530542403263e+01
2.775073510670984067e+00 2.629990543318431670e-02 1.002021949285984093e+01 2.189543488055877418e+01
2.792526803190927165e+00 2.662643331335987767e-02 1.009075719367851320e+01 2.179840850278576880e+01
2.809980095710870263e+00 2.695672702004413626e-02 1.016130949281173024e+01 2.170503804383381663e+01
2.827433388230813804e+00 2.729067625018118809e-02 1.023186682520973001e+01 2.161805338919670305e+01
2.844886680750756902e+00 2.762822558519321611e-02 1.030241891328378756e+01 2.153336093877706148e+01
2.862339973270700000e+00 2.796931414015825512e-02 1.037295554282916932e+01 2.145112498688993696e+01
2.879793265790643542e+00 2.831383061441129778e-02 1.044346687820609176e+01 2.137438556874630891e+01
2.897246558310587083e+00 2.866169486106569242e-02 1.051394346123081469e+01 2.130103384838073666e+01
2.914699850830530625e+00 2.901284959420762435e-02 1.058437604168417501e+01 2.122952780486188118e+01
2.932153143350473723e+00 2.936722232730483440e-02 1.065475528212556711e+01 2.116058922736579362e+01
2.949606435870416821e+00 2.972473385076490615e-02 1.072507172828500899e+01 2.109439498451118666e+01
2.967059728390360362e+00 3.008530553322107462e-02 1.079531580906315114e+01 2.103068745032621578e+01
2.984513020910303460e+00 3.044885742998269459e-02 1.086547783653127297e+01 2.096932958434945959e+01
3.001966313430246558e+00 3.081530819464629867e-02 1.093554800593128462e+01 2.091019517890646640e+01
3.019419605950190100e+00 3.118457999100645445e-02 1.100551639567571982e+01 2.085288581748038794e+01
3.036872898470133197e+00 3.155659991719819008e-02 1.107537307671110405e+01 2.079697214844712860e+01
3.054326190990076295e+00 3.193129441555796200e-02 1.114510845026845942e+01 2.074245297219331974e+01
3.071779483510019837e+00 3.230858581314909050e-02 1.121471295841505267e+01 2.068943486280157629e+01
3.089232776029963379e+00 3.268839423763625351e-02 1.128417698435148075e+01 2.063788773960532552e+01
3.106686068549906921e+00 3.307064144383178167e-02 1.135349085241167977e+01 2.058757668366548543e+01
3.124139361069850018e+00 3.345525122908762916e-02 1.142264482806291959e+01 2.053825286288934393e+01
3.141592653589793116e+00 3.384214840122222456e-02 1.149162911790580566e+01 2.048973037106517481e+01
3.159045946109736214e+00 3.423125739825761543e-02 1.156043386967427544e+01 2.044190159567070353e+01
3.176499238629679756e+00 3.462250219208404950e-02 1.162904917223560908e+01 2.039466697178713872e+01
3.193952531149622853e+00 3.501580630903100566e-02 1.169746505559493599e+01 2.034792849502066758e+01
3.211405823669565951e+00 3.541109304386992618e-02 1.176567155897121886e+01 2.030159998256055331e+01
3.228859116189509493e+00 3.580828558681234397e-02 1.183365897077576001e+01 2.025566340295762657e+01
3.246312408709452590e+00 3.620730702518056010e-02 1.190141788146492985e+01 2.021011990239230371e+01
3.263765701229396576e+00 3.660808034340762296e-02 1.196893917180574363e+01 2.016497057404281179e+01
3.281218993749339674e+00 3.701052842303734908e-02 1.203621368950607362e+01 2.012012261667743473e+01
3.298672286269282772e+00 3.741457404272430232e-02 1.210323189300951796e+01 2.007537808932426415e+01
3.316125578789226314e+00 3.782013987823380774e-02 1.216998387510123614e+01 2.003054682026361277e+01
3.333578871309169411e+00 3.822714850244194468e-02 1.223645982186961589e+01 1.998557778313990241e+01
3.351032163829112509e+00 3.863552130308039317e-02 1.230265029098263696e+01 1.994055903871369395e+01
3.368485456349056051e+00 3.904517592169048229e-02 1.236854589890888789e+01 1.989560996377042557e+01
3.385938748868999149e+00 3.945603224326682534e-02 1.243413681562312689e+01 1.985040486070383636e+01
3.403392041388942246e+00 3.986801416423202404e-02 1.249941288781031190e+01 1.980457239605529907e+01
3.420845333908885788e+00 4.028104959243665462e-02 1.256436399921511615e+01 1.975785489856961163e+01
3.438298626428828886e+00 4.069507036951765244e-02 1.262898065667206815e+01 1.971018273227843665e+01
