# angles(rad), pulling distance(m),                                     elastic band force(n), cable force(n)
0.000000000000000000e+00 3.381842379525346835e-04 2.458066053745919244e-02 1.786626355254931908e-02
1.745329251994329547e-02 6.658720555295187787e-04 4.959508809796147472e-02 3.785898260595946946e-02
3.490658503988659095e-02 9.837092501731633642e-04 7.506883051096528703e-02 6.016552133949588932e-02
5.235987755982988295e-02 1.292067983415661012e-03 1.010276442444710682e-01 8.504892244497243292e-02
6.981317007977318190e-02 1.591142133303262342e-03 1.274976745399227507e-01 1.128438318370124788e-01
8.726646259971647390e-02 1.881158260094415802e-03 1.545078578962960913e-01 1.438983968910357292e-01
1.047197551196597659e-01 2.162360982895416856e-03 1.820915856726163795e-01 1.786172153498818138e-01
1.221730476396030718e-01 2.434990324908978786e-03 2.102819945130826040e-01 2.174357078856752890e-01
1.396263401595463638e-01 2.699283860500914685e-03 2.391031967863265217e-01 2.607419656831071464e-01
1.570796326794896558e-01 2.955477110749376440e-03 2.685710510362132042e-01 3.089157337282937843e-01
1.745329251994329478e-01 3.203804342398542011e-03 2.986981220759074018e-01 3.623806975755958781e-01
1.919862177193762398e-01 3.444499633649605614e-03 3.294951546005811527e-01 4.215900086874532215e-01
2.094395102393195318e-01 3.677796000206976033e-03 3.609733958969789658e-01 4.870546346391984027e-01
2.268928027592628516e-01 3.903931606416640668e-03 3.931450279490852906e-01 5.593155980295362317e-01
2.443460952792061436e-01 4.123129702471784418e-03 4.260223302551611746e-01 6.389866149847501786e-01
2.617993877991494078e-01 4.335678477167809533e-03 4.596173911754433683e-01 7.264626332776007445e-01
2.792526803190927276e-01 4.541987644275316191e-03 4.939422061515025275e-01 8.217993932466360896e-01
2.967059728390360474e-01 4.742477593246630790e-03 5.290087529413369793e-01 9.252588612261799517e-01
3.141592653589793116e-01 4.937525096623819956e-03 5.648293948776020867e-01 1.037314047022767083e+00
3.316125578789225758e-01 5.127473466024757426e-03 6.014172159835695641e-01 1.158448770992567933e+00
3.490658503988658956e-01 5.312637981810335551e-03 6.387850189077415308e-01 1.289123490869036548e+00
3.665191429188092154e-01 5.493307206753218937e-03 6.769436986959000979e-01 1.429755280198654610e+00
3.839724354387524796e-01 5.669746684500077093e-03 7.159029152963587439e-01 1.580769626962196694e+00
4.014257279586957439e-01 5.842201335630427088e-03 7.556742087542381858e-01 1.742727175980848031e+00
4.188790204786390636e-01 6.010897355365862026e-03 7.962715678619917137e-01 1.916258773531513748e+00
4.363323129985823834e-01 6.176044399222768017e-03 8.377087863812372470e-01 2.101903929134105731e+00
4.537856055185257032e-01 6.337836888950568875e-03 8.799973905050397782e-01 2.300098189950316563e+00
4.712388980384689674e-01 6.496455847489252325e-03 9.231473352388799292e-01 2.511285968822877912e+00
4.886921905584122872e-01 6.652069760938362705e-03 9.671697415740744264e-01 2.736075355665590347e+00
5.061454830783556069e-01 6.804836147314928356e-03 1.012077511833327836e+00 2.975140373742584998e+00
5.235987755982988157e-01 6.954902137248942899e-03 1.057884254402109869e+00 3.229128180893802380e+00
5.410520681182421354e-01 7.102405764820540236e-03 1.104602084930976336e+00 3.498531789029359906e+00
5.585053606381854552e-01 7.247476484569399455e-03 1.152241357939018052e+00 3.783805630594534009e+00
5.759586531581287749e-01 7.390236001879729559e-03 1.200811649028988848e+00 4.085455907698387179e+00
5.934119456780720947e-01 7.530799038733893176e-03 1.250324874987428281e+00 4.404260141372722259e+00
6.108652381980153034e-01 7.669273589446100325e-03 1.300795911910870517e+00 4.741125222089565661e+00
6.283185307179586232e-01 7.805761841970104351e-03 1.352242580390961457e+00 5.097022963628431214e+00
6.457718232379019430e-01 7.940360414484162743e-03 1.404683001093991690e+00 5.472730219636683380e+00
6.632251157578451517e-01 8.073160717962697339e-03 1.458129921611773128e+00 5.868401802077221951e+00
6.806784082777884715e-01 8.204249664927523028e-03 1.512589982825068846e+00 6.283957950884635046e+00
6.981317007977317912e-01 8.333709754636563216e-03 1.568063718903593307e+00 6.719163650532590459e+00
7.155849933176750000e-01 8.461619372264948119e-03 1.624545557306012578e+00 7.173605968529218835e+00
7.330382858376184307e-01 8.588053332268693468e-03 1.682023818779945001e+00 7.646664302719949902e+00
7.504915783575616395e-01 8.713082935897327116e-03 1.740480717361959861e+00 8.137521181062039588e+00
7.679448708775049592e-01 8.836776150562318868e-03 1.799893363283799452e+00 8.645294519952008372e+00
7.853981633974482790e-01 8.959198200670452292e-03 1.860237746977702500e+00 9.169500124066814806e+00
8.028514559173914877e-01 9.080411689100941278e-03 1.921489631504369022e+00 9.709716513569839336e+00
8.203047484373349185e-01 9.200476605116865436e-03 1.983624524933395916e+00 1.026547159235033568e+01
8.377580409572781273e-01 9.319450437144317229e-03 2.046617680343276735e+00 1.083624049133146094e+01
8.552113334772214470e-01 9.437388256812444254e-03 2.110444095821403021e+00 1.142144920792189211e+01
8.726646259971647668e-01 9.554342720960729007e-03 2.175078514464166890e+00 1.202048475092936108e+01
8.901179185171079755e-01 9.670364317795389700e-03 2.240495703780275960e+00 1.263272835530711724e+01
9.075712110370514063e-01 9.785502635847636438e-03 2.306671549344629035e+00 1.325761421561236020e+01
9.250245035569946150e-01 9.899806771703011099e-03 2.373583318467275216e+00 1.389456801454664436e+01
9.424777960769379348e-01 1.001332533019284009e-02 2.441208657284488659e+00 1.454278179432388995e+01
9.599310885968812546e-01 1.012610572214228850e-02 2.509523257630291493e+00 1.520096494081639982e+01
9.773843811168245743e-01 1.023819120436302195e-02 2.578500854060638225e+00 1.586813811947893527e+01
9.948376736367677831e-01 1.034962009989411937e-02 2.648114628051449593e+00 1.654375665668234063e+01
1.012290966156711214e+00 1.046042579799814735e-02 2.718339018326466405e+00 1.722778732403688551e+01
1.029744258676654312e+00 1.057063730589574875e-02 2.789153766651698341e+00 1.792128842020064994e+01
1.047197551196597631e+00 1.068028295920616516e-02 2.860536876155141517e+00 1.862308362476798251e+01
1.064650843716540951e+00 1.078939195141855045e-02 2.932458160318090812e+00 1.932986020379143000e+01
1.082104136236484271e+00 1.089799433866567302e-02 3.004895329682020222e+00 2.004247949188838263e+01
1.099557428756427591e+00 1.100612104370022465e-02 3.077827928977628691e+00 2.076027295691925545e+01
1.117010721276370910e+00 1.111380393811431735e-02 3.151227887896916435e+00 2.147973443465286536e+01
1.134464013796314230e+00 1.122107591973356931e-02 3.225068807402110771e+00 2.219983658466796683e+01
1.151917306316257550e+00 1.132797091562722305e-02 3.299327445186802432e+00 2.292002161906280122e+01
1.169370598836200648e+00 1.143452388196924269e-02 3.373980845061669065e+00 2.363886711403548802e+01
1.186823891356144189e+00 1.154077042062931491e-02 3.449005086953293109e+00 2.435458088257420783e+01
1.204277183876087287e+00 1.164674555923062883e-02 3.524375981931779922e+00 2.506581972949531334e+01
1.221730476396030607e+00 1.175248350905701809e-02 3.600069024734724898e+00 2.577127504649162759e+01
1.239183768915973927e+00 1.185801766505295562e-02 3.676059544046155647e+00 2.646969326049861237e+01
1.256637061435917246e+00 1.196338062277039690e-02 3.752322781661056261e+00 2.715985675658875564e+01
1.274090353955860566e+00 1.206860455629809627e-02 3.828833968391807119e+00 2.784049416281837352e+01
1.291543646475803886e+00 1.217372158972358613e-02 3.905568381944281242e+00 2.851026989741009743e+01
1.308996938995747206e+00 1.227876381278643174e-02 3.982501391441311434e+00 2.916787254077637925e+01
1.326450231515690303e+00 1.238376328087823115e-02 4.059608489057223935e+00 2.981202035942196815e+01
1.343903524035633845e+00 1.248875202409872875e-02 4.136865310703796261e+00 3.044146026338329136e+01
1.361356816555576943e+00 1.259376210137608948e-02 4.214247645585792235e+00 3.105495501398828395e+01
1.378810109075520263e+00 1.269882562048471435e-02 4.291731442934457519e+00 3.165129554202485807e+01
1.396263401595463582e+00 1.280397473807750285e-02 4.369292787543606948e+00 3.222929791055016580e+01
1.413716694115406902e+00 1.290924166016167891e-02 4.446907961504927620e+00 3.278784334039814041e+01
1.431169986635350000e+00 1.301465872202087551e-02 4.524553191662239904e+00 3.332572239537974212e+01
1.448623279155293542e+00 1.312025855719916451e-02 4.602205150926376831e+00 3.384193226263739263e+01
1.466076571675236861e+00 1.322607411898589318e-02 4.679834610258519767e+00 3.433266567071065367e+01
1.483529864195180181e+00 1.333213868041568592e-02 4.757417239457776503e+00 3.479889349085910766e+01
1.500983156715123279e+00 1.343848584401341473e-02 4.834929481551399455e+00 3.523988903899748237e+01
1.518436449235066599e+00 1.354514967542688741e-02 4.912347875187462520e+00 3.565464285680109668e+01
1.535889741755009918e+00 1.365216480040317738e-02 4.989648964202607395e+00 3.604212944867457935e+01
1.553343034274953460e+00 1.375956640696524708e-02 5.066809174294069074e+00 3.640132330384933113e+01
1.570796326794896558e+00 1.386739024552826639e-02 5.143805091498601989e+00 3.673139411650635822e+01
1.588249619314839878e+00 1.397567269960136790e-02 5.220609624200045040e+00 3.702968186633883363e+01
1.605702911834782975e+00 1.408445097636601764e-02 5.297196296705282137e+00 3.729555661646276121e+01
1.623156204354726295e+00 1.419376313846401269e-02 5.373541412373810111e+00 3.752955140614046314e+01
1.640609496874669837e+00 1.430364810399748464e-02 5.449627285052695669e+00 3.773397441086731163e+01
1.658062789394613157e+00 1.441414567605105515e-02 5.525452997279939105e+00 3.791679772780729962e+01
1.675516081914556255e+00 1.452529675982824550e-02 5.601024433687940451e+00 3.808127167330136587e+01
1.692969374434499574e+00 1.463714345956299186e-02 5.676348092536624534e+00 3.822761943290353059e+01
1.710422666954442894e+00 1.474972907896806087e-02 5.751430371667287211e+00 3.835574230954119201e+01
1.727875959474386436e+00 1.486309814174816349e-02 5.826277649188565277e+00 3.846561040825440614e+01
1.745329251994329534e+00 1.497729663171201188e-02 5.900896271362088719e+00 3.855714287442073385e+01
1.762782544514272853e+00 1.509237214846908745e-02 5.975292561393864332e+00 3.863025002621449744e+01
1.780235837034215951e+00 1.520837391006011653e-02 6.049472823475741556e+00 3.868488489724138901e+01
1.797689129554159271e+00 1.532535278913944692e-02 6.123443347634182743e+00 3.872103388611268571e+01
1.815142422074102813e+00 1.544336162750495692e-02 6.197210414231418163e+00 3.873862667199176002e+01
1.832595714594046132e+00 1.556245539788204089e-02 6.270780298358085147e+00 3.873759126722204371e+01
1.850049007113989230e+00 1.568269120529904026e-02 6.344159274076079491e+00 3.871790935864808603e+01
1.867502299633932550e+00 1.580412841770174881e-02 6.417353618526212777e+00 3.867957621219590436e+01
1.884955592153875870e+00 1.592682908449579229e-02 6.490369615904878486e+00 3.862251308356334789e+01
1.902408884673818967e+00 1.605085802020937355e-02 6.563213561316142197e+00 3.854668006561220750e+01
1.919862177193762509e+00 1.617628283897388705e-02 6.635891764507931612e+00 3.845209383360776201e+01
1.937315469713705829e+00 1.630317439187928263e-02 6.708410553490473660e+00 3.833870720295628587e+01
1.954768762233649149e+00 1.643160706750647349e-02 6.780776278085660635e+00 3.820646002158290599e+01
1.972222054753592246e+00 1.656165881277810864e-02 6.852995313238655406e+00 3.805536853014743315e+01
1.989675347273535566e+00 1.669341156224169592e-02 6.925074062821940934e+00 3.788540893849108926e+01
2.007128639793478886e+00 1.682695172100879752e-02 6.997018961148766536e+00 3.769651185069094623e+01
2.024581932313422428e+00 1.696237021506039402e-02 7.068836482332432780e+00 3.748869881984867902e+01
2.042035224833365525e+00 1.709976304934849797e-02 7.140533123529384518e+00 3.726193174231352856e+01
2.059488517353308623e+00 1.723923186191303122e-02 7.212115464516159591e+00 3.701616862752823778e+01
2.076941809873252165e+00 1.738088405648866366e-02 7.283590041626092138e+00 3.675139094222663516e+01
2.094395102393195263e+00 1.752483367370052947e-02 7.354962754911165135e+00 3.646717914894127688e+01
2.111848394913138804e+00 1.767120181424555042e-02 7.426238988020633869e+00 3.616322098961000364e+01
2.129301687433081902e+00 1.782011718468352532e-02 7.497425230399699991e+00 3.584005654355563308e+01
2.146754979953025444e+00 1.797171712680662239e-02 7.568528273468758449e+00 3.549773068916285723e+01
2.164208272472968542e+00 1.812614800456008660e-02 7.639554768958409348e+00 3.513615995931802871e+01
2.181661564992911639e+00 1.828356651324400395e-02 7.710511665897425537e+00 3.475537827147901737e+01
2.199114857512855181e+00 1.844414028680170861e-02 7.781405415020128835e+00 3.435511236311896255e+01
2.216568150032798723e+00 1.860804948467509323e-02 7.852240495714876367e+00 3.393428168553313640e+01
2.234021442552741821e+00 1.877548771133411010e-02 7.923023488909127110e+00 3.349386390931054791e+01
2.251474735072684918e+00 1.894666342758445990e-02 7.993761687920253323e+00 3.303414278112933999e+01
2.268928027592628460e+00 1.912180150521316027e-02 8.064461921314336479e+00 3.255484745261295387e+01
2.286381320112572002e+00 1.930114702673595140e-02 8.135130323657589813e+00 3.205525613049533007e+01
2.303834612632515100e+00 1.948496384051102634e-02 8.205771911463125790e+00 3.153513245557192946e+01
2.321287905152458197e+00 1.967353421216777934e-02 8.276393465396390425e+00 3.099594927634493047e+01
2.338741197672401295e+00 1.986718711061659023e-02 8.347002465012971939e+00 3.043452995398835625e+01
2.356194490192344837e+00 2.006624633600580590e-02 8.417605079577610283e+00 2.985568369557989854e+01
2.373647782712288379e+00 2.027093418695043170e-02 8.488206180151832925e+00 2.927759002080518513e+01
2.391101075232231477e+00 2.048141050873064639e-02 8.558813108110017609e+00 2.871161446668252992e+01
2.408554367752174574e+00 2.069774489437254533e-02 8.629433002114096141e+00 2.816980028932416857e+01
2.426007660272118116e+00 2.091991390171428489e-02 8.700070604542036179e+00 2.766146978877835849e+01
2.443460952792061214e+00 2.114783151037384623e-02 8.770732869437972923e+00 2.719227588410967655e+01
2.460914245312004311e+00 2.138137914598372755e-02 8.841426627489781254e+00 2.676257771586340084e+01
2.478367537831947853e+00 2.162046081542868398e-02 8.912157608841532408e+00 2.636612230031213855e+01
2.495820830351891395e+00 2.186500091105677418e-02 8.982932602120691001e+00 2.599847656513272298e+01
2.513274122871834493e+00 2.211492435633179154e-02 9.053757847297392303e+00 2.565724150448125229e+01
2.530727415391777591e+00 2.237016032489198142e-02 9.124639073269461775e+00 2.533990830972814834e+01
2.548180707911721132e+00 2.263062761957252214e-02 9.195583789715927381e+00 2.504644912603165352e+01
2.565634000431664674e+00 2.289620213389828920e-02 9.266598586716098040e+00 2.477894459068812338e+01
2.583087292951607772e+00 2.316679685648440415e-02 9.337688064743463912e+00 2.453157120585499840e+01
2.600540585471550870e+00 2.344233747738192972e-02 9.408858520660038138e+00 2.430250568459563354e+01
2.617993877991494411e+00 2.372275537867369125e-02 9.480117505205424067e+00 2.409059991105921128e+01
2.635447170511437509e+00 2.400797074553468607e-02 9.551472129262730704e+00 2.389568663421812644e+01
2.652900463031380607e+00 2.429787012660232157e-02 9.622928402190758845e+00 2.371921581003265089e+01
2.670353755551324149e+00 2.459236069840218045e-02 9.694491392913057837e+00 2.355820063672329567e+01
2.687807048071267690e+00 2.489137269656130705e-02 9.766167114238959002e+00 2.341033392679633351e+01
2.705260340591210788e+00 2.519483340687285119e-02 9.837962457327153132e+00 2.327549715373172035e+01
2.722713633111153886e+00 2.550264705891478953e-02 9.909884020217020861e+00 2.315473475797071856e+01
2.740166925631096984e+00 2.581470685934789816e-02 9.981938146927795685e+00 2.304814125560615068e+01
2.757620218151040525e+00 2.613094912783263390e-02 1.005413120084061696e+01 2.295197410854369124e+01
2.775073510670984067e+00 2.645130115842011034e-02 1.012646956991278202e+01 2.286647884837950429e+01
2.792526803190927165e+00 2.677563802176743252e-02 1.019895964768084440e+01 2.279492285839882371e+01
2.809980095710870263e+00 2.710389406249203229e-02 1.027160779816965430e+01 2.273266037804678419e+01
2.827433388230813804e+00 2.743599763985613699e-02 1.034442032314628612e+01 2.267977265183371571e+01
2.844886680750756902e+00 2.777183214999228572e-02 1.041740369200946681e+01 2.263904373443808282e+01
2.862339973270700000e+00 2.811132365353752327e-02 1.049056485945227202e+01 2.260739854273685978e+01
2.879793265790643542e+00 2.845440608836246471e-02 1.056391049474093613e+01 2.258398121619663357e+01
2.897246558310587083e+00 2.880097961443438617e-02 1.063744513403666403e+01 2.257012241601985991e+01
2.914699850830530625e+00 2.915094760663267809e-02 1.071117041577194406e+01 2.256446515742887371e+01
2.932153143350473723e+00 2.950422561605095875e-02 1.078508202684280803e+01 2.256417798118738460e+01
2.949606435870416821e+00 2.986073023538526536e-02 1.085916858400301699e+01 2.256684402893166563e+01
2.967059728390360362e+00 3.022037809252443863e-02 1.093341419937534198e+01 2.257091344322958548e+01
2.984513020910303460e+00 3.058308690645971523e-02 1.100780303705134067e+01 2.257617245106938242e+01
3.001966313430246558e+00 3.094877315395947251e-02 1.108231978120949712e+01 2.258270288974485851e+01
3.019419605950190100e+00 3.131734845446248333e-02 1.115694955351772322e+01 2.259078684049199026e+01
3.036872898470133197e+00 3.168872208217277109e-02 1.123167756511699977e+01 2.260044517808815101e+01
3.054326190990076295e+00 3.206280749172804589e-02 1.130648902497814845e+01 2.261127882181400039e+01
3.071779483510019837e+00 3.243952262470030379e-02 1.138136913990137167e+01 2.262288277233088962e+01
3.089232776029963379e+00 3.281878454383362759e-02 1.145630311451625083e+01 2.263518385197438221e+01
3.106686068549906921e+00 3.320050667704978198e-02 1.153127615128175520e+01 2.264827516180939071e+01
3.124139361069850018e+00 3.358459944650521445e-02 1.160627345048623127e+01 2.266221162791471144e+01
3.141592653589793116e+00 3.397097384242292462e-02 1.168128025942440296e+01 2.267685348276766888e+01
3.159045946109736214e+00 3.435954264195188734e-02 1.175628200157457393e+01 2.269203375041052695e+01
3.176499238629679756e+00 3.475022040734168649e-02 1.183126405565254657e+01 2.270752420083563905e+01
3.193952531149622853e+00 3.514292288013946830e-02 1.190621168808086594e+01 2.272311581983748852e+01
3.211405823669565951e+00 3.553756563007329228e-02 1.198111005298881260e+01 2.273868081705542110e+01
3.228859116189509493e+00 3.593406387231620758e-02 1.205594419221240265e+01 2.275410355032872545e+01
3.246312408709452590e+00 3.633233246748623912e-02 1.213069903529439131e+01 2.276926962998698301e+01
3.263765701229396576e+00 3.673228592164640149e-02 1.220535939948426751e+01 2.278406570452892410e+01
3.281218993749339674e+00 3.713383838630468503e-02 1.227990998973826287e+01 2.279837925487464645e+01
3.298672286269282772e+00 3.753690365841405585e-02 1.235433552589146267e+01 2.281213761034397436e+01
3.316125578789226314e+00 3.794139518037247666e-02 1.242862129265572513e+01 2.282543916068747691e+01
3.333578871309169411e+00 3.834722604002288593e-02 1.250275328827161658e+01 2.283843206874722398e+01
3.351032163829112509e+00 3.875430835043550820e-02 1.257671812957811852e+01 2.285127446751372560e+01
3.368485456349056051e+00 3.916255186282496803e-02 1.265050189434187899e+01 2.286384541550694394e+01
3.385938748868999149e+00 3.957186772148426485e-02 1.272408934803589453e+01 2.287556946276265890e+01
3.403392041388942246e+00 3.998216955757268043e-02 1.279746448215415633e+01 2.288597296331362330e+01
3.420845333908885788e+00 4.039337348911578585e-02 1.287061229469428092e+01 2.289513944762095221e+01
3.438298626428828886e+00 4.080539777697334697e-02 1.294351884043573619e+01 2.290319469520814266e+01
