# angles(rad), pulling distance(m),                                     elastic band force(n), cable force(n)
0.000000000000000000e+00 3.106149008638167761e-04 2.111091932710249322e-02 1.434802108965227939e-02
1.745329251994329547e-02 6.156637451173914161e-04 4.254895591402928223e-02 2.990229567505747754e-02
3.490658503988659095e-02 9.154271180641311871e-04 6.433285293542718997e-02 4.675088319369417877e-02
5.235987755982988295e-02 1.210112562038373907e-03 8.648150266442357348e-02 6.499976669085177905e-02
6.981317007977318190e-02 1.499775844238256410e-03 1.090140018551293000e-01 8.480045830873655932e-02
8.726646259971647390e-02 1.784463726107143183e-03 1.319504950569604373e-01 1.063087621778743136e-01
1.047197551196597659e-01 2.064223271265266339e-03 1.553128313634179469e-01 1.296996174686171066e-01
1.221730476396030718e-01 2.339101542899207908e-03 1.791245825014226301e-01 1.551694121135543947e-01
1.396263401595463638e-01 2.609145325972356527e-03 2.034110496090726361e-01 1.829383261278461903e-01
1.570796326794896558e-01 2.874394067130782004e-03 2.281992673456625653e-01 2.132584343884229017e-01
1.745329251994329478e-01 3.134893492769882332e-03 2.535181939602342838e-01 2.464039424497862507e-01
1.919862177193762398e-01 3.390690893276561250e-03 2.793991831412346860e-01 2.826896294385858321e-01
2.094395102393195318e-01 3.641833988170632697e-03 3.058760712984995300e-01 3.224713995489234541e-01
2.268928027592628516e-01 3.888370582485228388e-03 3.329852794168396413e-01 3.661512103365788251e-01
2.443460952792061436e-01 4.130348241136163820e-03 3.607660216671477182e-01 4.141848431991748125e-01
2.617993877991494078e-01 4.367814058263388283e-03 3.892618912149350408e-01 4.671138021538036034e-01
2.792526803190927276e-01 4.600814564039178156e-03 4.185210988683504829e-01 5.255609080483414353e-01
2.967059728390360474e-01 4.829395569973732490e-03 4.485919396418822092e-01 5.901425069904098208e-01
3.141592653589793116e-01 5.053598229411008710e-03 4.795201166445854923e-01 6.614855988400863973e-01
3.316125578789225758e-01 5.273469342850659568e-03 5.113464836431780292e-01 7.401745776092787388e-01
3.490658503988658956e-01 5.489055766260916326e-03 5.441072627162624187e-01 8.268321141905518035e-01
3.665191429188092154e-01 5.700404318234202072e-03 5.778361204437078014e-01 9.221616194790955845e-01
3.839724354387524796e-01 5.907561776085811477e-03 6.125712829109631885e-01 1.027129954931626843e+00
4.014257279586957439e-01 6.110574936772461378e-03 6.483511798628142087e-01 1.142681505260069175e+00
4.188790204786390636e-01 6.309490708823822618e-03 6.852078173020551555e-01 1.269605513549457054e+00
4.363323129985823834e-01 6.504356132717376351e-03 7.231810531019741140e-01 1.409255890900177111e+00
4.537856055185257032e-01 6.695218446600114705e-03 7.623102412491702395e-01 1.562832402561105782e+00
4.712388980384689674e-01 6.882120912342453573e-03 8.026243382861225628e-01 1.731227853488757518e+00
4.886921905584122872e-01 7.065141485255204551e-03 8.441625808062377390e-01 1.915906471599339911e+00
5.061454830783556069e-01 7.244488513274179552e-03 8.869650284770476123e-01 2.116805315179828284e+00
5.235987755982988157e-01 7.420362358581364913e-03 9.310647751909786329e-01 2.334612101558899866e+00
5.410520681182421354e-01 7.592944642985432167e-03 9.764976454367748637e-01 2.570663088256636808e+00
5.585053606381854552e-01 7.762407819306088932e-03 1.023302948927985678e+00 2.826337032500623625e+00
5.759586531581287749e-01 7.928912184803895910e-03 1.071518495444739649e+00 3.102852571235333645e+00
5.934119456780720947e-01 8.092608327285682329e-03 1.121175567739200130e+00 3.401075637943197449e+00
6.108652381980153034e-01 8.253637658322683993e-03 1.172312849284792069e+00 3.722855447969045883e+00
6.283185307179586232e-01 8.412133173562106117e-03 1.224971230800367072e+00 4.069831396784238109e+00
6.457718232379019430e-01 8.568220185113245568e-03 1.279182087873745211e+00 4.442750017917329153e+00
6.632251157578451517e-01 8.722016940390030573e-03 1.334979834598941650e+00 4.843331483823598127e+00
6.806784082777884715e-01 8.873635204264353205e-03 1.392404357698623141e+00 5.273649371756405912e+00
6.981317007977317912e-01 9.023180735060008090e-03 1.451496684849287178e+00 5.735531948221237464e+00
7.155849933176750000e-01 9.170753791967611521e-03 1.512292254743679010e+00 6.230179912284503629e+00
7.330382858376184307e-01 9.316449536071181453e-03 1.574811625608296684e+00 6.757660127211902790e+00
7.504915783575616395e-01 9.460358406626522693e-03 1.639036360345649035e+00 7.314814928492850754e+00
7.679448708775049592e-01 9.602566509855674920e-03 1.704909967095765477e+00 7.897480253698857311e+00
7.853981633974482790e-01 9.743155884921328794e-03 1.772370595829607431e+00 8.504571180304616007e+00
8.028514559173914877e-01 9.882204864312824771e-03 1.841359735075191351e+00 9.135904752428762876e+00
8.203047484373349185e-01 1.001978827581898567e-02 1.911822211989756548e+00 9.791276942645680492e+00
8.377580409572781273e-01 1.015597775956648095e-02 1.983705066687318608e+00 1.047029323761014297e+01
8.552113334772214470e-01 1.029084193010546856e-02 2.056953563867947032e+00 1.117188922168978849e+01
8.726646259971647668e-01 1.042444665470823595e-02 2.131512124421536036e+00 1.189497424375521639e+01
8.901179185171079755e-01 1.055685518158939670e-02 2.207324839746860778e+00 1.263840733281780437e+01
9.075712110370514063e-01 1.068812838979650570e-02 2.284335471751576474e+00 1.340091560136425741e+01
9.250245035569946150e-01 1.081832488813419188e-02 2.362487452852219061e+00 1.418110910225373367e+01
9.424777960769379348e-01 1.094750123893917064e-02 2.441724232369990144e+00 1.497753756301681527e+01
9.599310885968812546e-01 1.107571204269829079e-02 2.521990758190320037e+00 1.578895306601782345e+01
9.773843811168245743e-01 1.120301012313385663e-02 2.603233451773785845e+00 1.661405238201815138e+01
9.948376736367677831e-01 1.132944662308333142e-02 2.685397494807542085e+00 1.745090345068720339e+01
1.012290966156711214e+00 1.145507113196651827e-02 2.768426274672632026e+00 1.829730979854096873e+01
1.029744258676654312e+00 1.157993181406440954e-02 2.852263049625419100e+00 1.915130779200151423e+01
1.047197551196597631e+00 1.170407547408868279e-02 2.936854555676326139e+00 2.001173075359265496e+01
1.064650843716540951e+00 1.182754771071030039e-02 3.022147930106433122e+00 2.087669277229333886e+01
1.082104136236484271e+00 1.195039295514852690e-02 3.108087130759495498e+00 2.174333445295529543e+01
1.099557428756427591e+00 1.207265460093644334e-02 3.194615516693277701e+00 2.260929194573351708e+01
1.117010721276370910e+00 1.219437507350659526e-02 3.281676327906269730e+00 2.347225550585406140e+01
1.134464013796314230e+00 1.231559589360241118e-02 3.369213442699106498e+00 2.433007990393067743e+01
1.151917306316257550e+00 1.243635779464318490e-02 3.457171903064600649e+00 2.518074949066402368e+01
1.169370598836200648e+00 1.255670074731950366e-02 3.545498064203211896e+00 2.602231592054585363e+01
1.186823891356144189e+00 1.267666406693634951e-02 3.634140507936752584e+00 2.685313281788575424e+01
1.204277183876087287e+00 1.279628647112203421e-02 3.723040754967187116e+00 2.766866667444594086e+01
1.221730476396030607e+00 1.291560612267653348e-02 3.812135046671369487e+00 2.846467178197750414e+01
1.239183768915973927e+00 1.303466073530699064e-02 3.901375995100354377e+00 2.924393152758539216e+01
1.256637061435917246e+00 1.315348759412657970e-02 3.990713613686246219e+00 3.000338932179672469e+01
1.274090353955860566e+00 1.327212363446335711e-02 4.080076569565330047e+00 3.073330005235525064e+01
1.291543646475803886e+00 1.339060551141943965e-02 4.169423954839728275e+00 3.144169707941510339e+01
1.308996938995747206e+00 1.350896962091933419e-02 4.258692863075480339e+00 3.211859270554265322e+01
1.326450231515690303e+00 1.362725219782426334e-02 4.347827823708190209e+00 3.276420518091344292e+01
1.343903524035633845e+00 1.374548934847011870e-02 4.436780850951495658e+00 3.337911018249833717e+01
1.361356816555576943e+00 1.386371709720625976e-02 4.525483629837617094e+00 3.395336357678080219e+01
1.378810109075520263e+00 1.398197147549957997e-02 4.613897861645001264e+00 3.449633247939720349e+01
1.396263401595463582e+00 1.410028853718090641e-02 4.701947765334026919e+00 3.499123811944961204e+01
1.413716694115406902e+00 1.421870443705476085e-02 4.789599513976399159e+00 3.545273676456496048e+01
1.431169986635350000e+00 1.433725549197717788e-02 4.876775642201012673e+00 3.586120924739206117e+01
1.448623279155293542e+00 1.445597820356276687e-02 4.963440377435402340e+00 3.623192567093709471e+01
1.466076571675236861e+00 1.457490935778594024e-02 5.049522003862947805e+00 3.654812480492251581e+01
1.483529864195180181e+00 1.469408605512990441e-02 5.134976664892852760e+00 3.681992369938028276e+01
1.500983156715123279e+00 1.481354576644552425e-02 5.219743965139614694e+00 3.703873038293192366e+01
1.518436449235066599e+00 1.493332642469313333e-02 5.303765342712266850e+00 3.720380877316390666e+01
1.535889741755009918e+00 1.505346644333464996e-02 5.387000054702713037e+00 3.732190182054380045e+01
1.553343034274953460e+00 1.517400481553301574e-02 5.469370539609796467e+00 3.737521050498197184e+01
1.570796326794896558e+00 1.529498117158554528e-02 5.550835475616828774e+00 3.737907733064275817e+01
1.588249619314839878e+00 1.541643582419381479e-02 5.631345846864363125e+00 3.732930233777150875e+01
1.605702911834782975e+00 1.553840988555784883e-02 5.710876526558611666e+00 3.723659659504107822e+01
1.623156204354726295e+00 1.566094529445623620e-02 5.789447649254132244e+00 3.712260853236732316e+01
1.640609496874669837e+00 1.578408492569652322e-02 5.867077294709763358e+00 3.698720920808586499e+01
1.658062789394613157e+00 1.590787266901976318e-02 5.943783838618435844e+00 3.683136179404349519e+01
1.675516081914556255e+00 1.603235348792786397e-02 6.019582132579654576e+00 3.665416567879565690e+01
1.692969374434499574e+00 1.615757356023067928e-02 6.094488851702080545e+00 3.645726729060013582e+01
1.710422666954442894e+00 1.628358031770866035e-02 6.168521917980623215e+00 3.624207154717937129e+01
1.727875959474386436e+00 1.641042259722215457e-02 6.241698935900128475e+00 3.600920108282417686e+01
1.745329251994329534e+00 1.653815071863302608e-02 6.314037374185374141e+00 3.575936120237727067e+01
1.762782544514272853e+00 1.666681660575647025e-02 6.385554608524325992e+00 3.549326208615423894e+01
1.780235837034215951e+00 1.679647392773481532e-02 6.456267989484115510e+00 3.521162792450218149e+01
1.797689129554159271e+00 1.692717819083506409e-02 6.526194897684590046e+00 3.491520633560112685e+01
1.815142422074102813e+00 1.705898693376409550e-02 6.595352746679367328e+00 3.460471583191842626e+01
1.832595714594046132e+00 1.719195981407874510e-02 6.663759110340021330e+00 3.428093969012825681e+01
1.850049007113989230e+00 1.732615883870370146e-02 6.731431496531325998e+00 3.394451137976959387e+01
1.867502299633932550e+00 1.746164846881734928e-02 6.798386446442903797e+00 3.359560607105681385e+01
1.884955592153875870e+00 1.759849587622298525e-02 6.864640339981138872e+00 3.323476556010015059e+01
1.902408884673818967e+00 1.773677107896224486e-02 6.930210754557357689e+00 3.286321648963802744e+01
1.919862177193762509e+00 1.787654722838140017e-02 6.995115873875093371e+00 3.248185275685066387e+01
1.937315469713705829e+00 1.801790077940127258e-02 7.059373422903476580e+00 3.209102499081281223e+01
1.954768762233649149e+00 1.816091181828330403e-02 7.123000183628815485e+00 3.169080036570754899e+01
1.972222054753592246e+00 1.830566427686397893e-02 7.186012518234575097e+00 3.128150151783545851e+01
1.989675347273535566e+00 1.845224630131490212e-02 7.248428771818267613e+00 3.086461453918701281e+01
2.007128639793478886e+00 1.860075054077810208e-02 7.310266874311248664e+00 3.044041260092884471e+01
2.024581932313422428e+00 1.875127453839909794e-02 7.371542320013619864e+00 3.000814144665813998e+01
2.042035224833365525e+00 1.890392114073475432e-02 7.432273319352098007e+00 2.956956651078523635e+01
2.059488517353308623e+00 1.905879890493828929e-02 7.492478060982203480e+00 2.912507861605389792e+01
2.076941809873252165e+00 1.921602263408130062e-02 7.552172355425412320e+00 2.867389055888420657e+01
2.094395102393195263e+00 1.937571388495192698e-02 7.611373448786514118e+00 2.821705182288718561e+01
2.111848394913138804e+00 1.953800155626739601e-02 7.670099562314866226e+00 2.775535159381712802e+01
2.129301687433081902e+00 1.970302257805247453e-02 7.728368186795085748e+00 2.728872836017971082e+01
2.146754979953025444e+00 1.987092262662218736e-02 7.786196331485650823e+00 2.681722202476603556e+01
2.164208272472968542e+00 2.004185693030997514e-02 7.843600850626819110e+00 2.634100502072935868e+01
2.181661564992911639e+00 2.021599119203049133e-02 7.900598972141457565e+00 2.586046512634641203e+01
2.199114857512855181e+00 2.039350261125658786e-02 7.957208225990489048e+00 2.537592355232995800e+01
2.216568150032798723e+00 2.057458102676504655e-02 8.013446053089328558e+00 2.488749375976680156e+01
2.234021442552741821e+00 2.075943018500583936e-02 8.069329733919317960e+00 2.439523401966819094e+01
2.251474735072684918e+00 2.094826923744605093e-02 8.124876370790403257e+00 2.389916447677839528e+01
2.268928027592628460e+00 2.114133425925444551e-02 8.180103326253982843e+00 2.339948468422511851e+01
2.286381320112572002e+00 2.133888052969525745e-02 8.235028708254093388e+00 2.289651414695998355e+01
2.303834612632515100e+00 2.154118298594495315e-02 8.289671250219541321e+00 2.239066779351479042e+01
2.321287905152458197e+00 2.174854636711445396e-02 8.344050140739858179e+00 2.188140386891296529e+01
2.338741197672401295e+00 2.196125311998249618e-02 8.398184540435007506e+00 2.137358934286315204e+01
2.356194490192344837e+00 2.217941922150366493e-02 8.452093031395433442e+00 2.088498522926821721e+01
2.373647782712288379e+00 2.240296717742149349e-02 8.505793719277342291e+00 2.043261687772734092e+01
2.391101075232231477e+00 2.263174230568267345e-02 8.559304422210427532e+00 2.002028803270331636e+01
2.408554367752174574e+00 2.286567060302024598e-02 8.612642683403420207e+00 1.963778603263065392e+01
2.426007660272118116e+00 2.310466966832070562e-02 8.665825767812263436e+00 1.928356258224267350e+01
2.443460952792061214e+00 2.334866097833745643e-02 8.718870679933608869e+00 1.895525414338339942e+01
2.460914245312004311e+00 2.359751341823484658e-02 8.771794215867894096e+00 1.865500561630248910e+01
2.478367537831947853e+00 2.385111391250777438e-02 8.824612980024507891e+00 1.837950486262428740e+01
2.495820830351891395e+00 2.410938101334048067e-02 8.877343420369035343e+00 1.812488799914434878e+01
2.513274122871834493e+00 2.437222821026305969e-02 8.930001842943307011e+00 1.789023494031161121e+01
2.530727415391777591e+00 2.463956858942143585e-02 8.982604446921671482e+00 1.767441139655919002e+01
2.548180707911721132e+00 2.491128952787733525e-02 9.035167343939164653e+00 1.747802629175654587e+01
2.565634000431664674e+00 2.518726927456519521e-02 9.087706585855952923e+00 1.730058892050096730e+01
2.583087292951607772e+00 2.546741994987089530e-02 9.140238189235299515e+00 1.713904015493515942e+01
2.600540585471550870e+00 2.575164897540497405e-02 9.192778156510531318e+00 1.699292542709081388e+01
2.617993877991494411e+00 2.603986269703426754e-02 9.245342506863543974e+00 1.686163378749347430e+01
2.635447170511437509e+00 2.633196531943165358e-02 9.297947291639914624e+00 1.674468076063169519e+01
2.652900463031380607e+00 2.662785949587698903e-02 9.350608629272878503e+00 1.664161032215565328e+01
2.670353755551324149e+00 2.692744652447998793e-02 9.403342718716167781e+00 1.655200888726738029e+01
2.687807048071267690e+00 2.723062668343775861e-02 9.456165877325771518e+00 1.647550260854248805e+01
2.705260340591210788e+00 2.753729958321918941e-02 9.509094555963674367e+00 1.641174718238071151e+01
2.722713633111153886e+00 2.784736456251431583e-02 9.562145369134244177e+00 1.636042834121308687e+01
2.740166925631096984e+00 2.816072111519031182e-02 9.615335113841647185e+00 1.632125499255726098e+01
2.757620218151040525e+00 2.847726937110665532e-02 9.668680814966821302e+00 1.629396300216064830e+01
2.775073510670984067e+00 2.879691051175010605e-02 9.722199763856146149e+00 1.627831483788936140e+01
2.792526803190927165e+00 2.911954762120053802e-02 9.775909501658849976e+00 1.627405901978971769e+01
2.809980095710870263e+00 2.944508491617934057e-02 9.829827798141110407e+00 1.628100920431419851e+01
2.827433388230813804e+00 2.977343252600068643e-02 9.883972810836700873e+00 1.629881921835251646e+01
2.844886680750756902e+00 3.010449681157414958e-02 9.938363367459931652e+00 1.632773872131039283e+01
2.862339973270700000e+00 3.043816525332987064e-02 9.993018575865802333e+00 1.636865955898628044e+01
2.879793265790643542e+00 3.077432830549006043e-02 1.004795687369582602e+01 1.642112789502158776e+01
2.897246558310587083e+00 3.111290938353868454e-02 1.010319169377894788e+01 1.648195991008797989e+01
2.914699850830530625e+00 3.145382263880938667e-02 1.015872068849579613e+01 1.654683526439874797e+01
2.932153143350473723e+00 3.179693441860226288e-02 1.021452849006298891e+01 1.661413022368374826e+01
2.949606435870416821e+00 3.214214572791406627e-02 1.027060042342355395e+01 1.668231622142553405e+01
2.967059728390360362e+00 3.248937895111154994e-02 1.032692475906000418e+01 1.675119595024618846e+01
2.984513020910303460e+00 3.283853656414243566e-02 1.038348979459206767e+01 1.682170020809451572e+01
3.001966313430246558e+00 3.318951476164146153e-02 1.044028247988461544e+01 1.689368973544314656e+01
3.019419605950190100e+00 3.354221318861913548e-02 1.049728880974501344e+01 1.696667358729316177e+01
3.036872898470133197e+00 3.389653330911431700e-02 1.055449509691632493e+01 1.704062068557007592e+01
3.054326190990076295e+00 3.425237744446193999e-02 1.061188822426184153e+01 1.711562427849123225e+01
3.071779483510019837e+00 3.460964846611639528e-02 1.066945562367088307e+01 1.719178931782944275e+01
3.089232776029963379e+00 3.496824943644273598e-02 1.072718491466645929e+01 1.726913284530617432e+01
3.106686068549906921e+00 3.532808357778929875e-02 1.078506360076972825e+01 1.734758431806358914e+01
3.124139361069850018e+00 3.568905398209405028e-02 1.084307906006707256e+01 1.742708555508386326e+01
3.141592653589793116e+00 3.605106327452625714e-02 1.090121854521009404e+01 1.750759571368603318e+01
3.159045946109736214e+00 3.641401359469265825e-02 1.095946918341561194e+01 1.758907593840954675e+01
3.176499238629679756e+00 3.677780659663744400e-02 1.101781797646567540e+01 1.767148838859816706e+01
3.193952531149622853e+00 3.714234344884227018e-02 1.107625180070754567e+01 1.775479617675460631e+01
3.211405823669565951e+00 3.750752483422625100e-02 1.113475740705370853e+01 1.783896331222147325e+01
3.228859116189509493e+00 3.787325095014596604e-02 1.119332147998222027e+01 1.792397280181801378e+01
3.246312408709452590e+00 3.823942210177353612e-02 1.125193084407057853e+01 1.800984344632096068e+01
3.263765701229396576e+00 3.860594046954331920e-02 1.131057240512599371e+01 1.809649066983450894e+01
3.281218993749339674e+00 3.897270827826722350e-02 1.136923312071786185e+01 1.818391185727357140e+01
3.298672286269282772e+00 3.933962719106901679e-02 1.142790000017776997e+01 1.827213611505683133e+01
3.316125578789226314e+00 3.970659830938434720e-02 1.148656010459949073e+01 1.836119469770356361e+01
3.333578871309169411e+00 4.007352217296072938e-02 1.154520054683898778e+01 1.845112114571955786e+01
3.351032163829112509e+00 4.044029875985754446e-02 1.160380849151441396e+01 1.854195143285536318e+01
3.368485456349056051e+00 4.080682748644604008e-02 1.166237114310850309e+01 1.863372031905200643e+01
3.385938748868999149e+00 4.117300769151261558e-02 1.172087564620108502e+01 1.872640836405261311e+01
3.403392041388942246e+00 4.153874103674305013e-02 1.177930903566111809e+01 1.881985773042370624e+01
3.420845333908885788e+00 4.190393224939072125e-02 1.183765823750866097e+01 1.891386993939014616e+01
3.438298626428828886e+00 4.226848893012812025e-02 1.189591017861317468e+01 1.900828857963877994e+01
