# angles(rad), pulling distance(m),                                     elastic band force(n), cable force(n)
0.000000000000000000e+00 2.995372375617234959e-04 2.090671289782753198e-02 1.459219720894033845e-02
1.745329251994329547e-02 5.942102715219338069e-04 4.211809711413452145e-02 3.031777724419369019e-02
3.490658503988659095e-02 8.842604946240944976e-04 6.365302947338791206e-02 4.725952869507582532e-02
5.235987755982988295e-02 1.169916420503217327e-03 8.553053848009482818e-02 6.550520946443012804e-02
6.981317007977318190e-02 1.451391821882052876e-03 1.077698043188025229e-01 8.514851798383721304e-02
8.726646259971647390e-02 1.728861029507297153e-03 1.303901590082212347e-01 1.062990617956890010e-01
1.047197551196597659e-01 2.002341388301941746e-03 1.534114280803280383e-01 1.291400150321342921e-01
1.221730476396030718e-01 2.271876384047289560e-03 1.768549977720775268e-01 1.538246435917760835e-01
1.396263401595463638e-01 2.537471648073311940e-03 2.007440228301184404e-01 1.805596575385765845e-01
1.570796326794896558e-01 2.799165010107877802e-03 2.251034383818892870e-01 2.095348599997199357e-01
1.745329251994329478e-01 3.056979264759441400e-03 2.499599907269568488e-01 2.409930204237261675e-01
1.919862177193762398e-01 3.310933250617117615e-03 2.753422572198592211e-01 2.751998763046975549e-01
2.094395102393195318e-01 3.561063303148292655e-03 3.012809805097403926e-01 3.124312295489660718e-01
2.268928027592628516e-01 3.807385812176367328e-03 3.278093976585077507e-01 3.530438399918990333e-01
2.443460952792061436e-01 4.049924325044289980e-03 3.549633905480090168e-01 3.974079526175187671e-01
2.617993877991494078e-01 4.288712976557128645e-03 3.827818597449407223e-01 4.459343150102061948e-01
2.792526803190927276e-01 4.523771592925905638e-03 4.113069644891075294e-01 4.991339788051066262e-01
2.967059728390360474e-01 4.755119957958249544e-03 4.405848674849865421e-01 5.575747643547966925e-01
3.141592653589793116e-01 4.982791072842109384e-03 4.706658852195549914e-01 6.218667153963833849e-01
3.316125578789225758e-01 5.206812533888811531e-03 5.016043496122896128e-01 6.927402507425570732e-01
3.490658503988658956e-01 5.427196989016395273e-03 5.334607494848589981e-01 7.711133229461225591e-01
3.665191429188092154e-01 5.643976341227935865e-03 5.663041646426095754e-01 8.579859011097358268e-01
3.839724354387524796e-01 5.857182894711446264e-03 6.001968200891369953e-01 9.541106354855010130e-01
4.014257279586957439e-01 6.066829193624074384e-03 6.351866599124768031e-01 1.060122673452122299e+00
4.188790204786390636e-01 6.272943212893330144e-03 6.713139523491241656e-01 1.176666951588379639e+00
4.363323129985823834e-01 6.475558673399712042e-03 7.086232296449591628e-01 1.304847147745725300e+00
4.537856055185257032e-01 6.674691039447024597e-03 7.471595521853265920e-01 1.445911684958801402e+00
4.712388980384689674e-01 6.870365786408971602e-03 7.869619115828458966e-01 1.600765623735333820e+00
4.886921905584122872e-01 7.062618255274941484e-03 8.280713934889663008e-01 1.770670939541632016e+00
5.061454830783556069e-01 7.251459852715749603e-03 8.705330366588998059e-01 1.957421652389652600e+00
5.235987755982988157e-01 7.436922087741845364e-03 9.143924285417128761e-01 2.162418448825723427e+00
5.410520681182421354e-01 7.619033900561183667e-03 9.596910853971645228e-01 2.387144276454407077e+00
5.585053606381854552e-01 7.797810029086465512e-03 1.006466311189180063e+00 2.633331941253743480e+00
5.759586531581287749e-01 7.973291236470685453e-03 1.054761766747937202e+00 2.902886342667834629e+00
5.934119456780720947e-01 8.145492941630139150e-03 1.104626454392202639e+00 3.198682211703710809e+00
6.108652381980153034e-01 8.314481263171063369e-03 1.156104007463163663e+00 3.521746642434310015e+00
6.283185307179586232e-01 8.480418103341654662e-03 1.209226481797353259e+00 3.871177893797611791e+00
6.457718232379019430e-01 8.643465624340599535e-03 1.264039458189927467e+00 4.249421552474581532e+00
6.632251157578451517e-01 8.803768338708739885e-03 1.320591923085863595e+00 4.658856131447561388e+00
6.806784082777884715e-01 8.961465014431188938e-03 1.378923357931908011e+00 5.100588052500332203e+00
6.981317007977317912e-01 9.116685560541572600e-03 1.439059606167512273e+00 5.575270018749904466e+00
7.155849933176750000e-01 9.269552271937405233e-03 1.500981894785191173e+00 6.080083312457045253e+00
7.330382858376184307e-01 9.420180723185253222e-03 1.564633490335245014e+00 6.611726887307485256e+00
7.504915783575616395e-01 9.568680081925674125e-03 1.629957818070026265e+00 7.170125151018114984e+00
7.679448708775049592e-01 9.715153695452716925e-03 1.696900989285810457e+00 7.755385473645077354e+00
7.853981633974482790e-01 9.859699523322343340e-03 1.765408560913889202e+00 8.367163218901012556e+00
8.028514559173914877e-01 1.000241055632466146e-02 1.835425172550746886e+00 9.004927565264729594e+00
8.203047484373349185e-01 1.014337519941115387e-02 1.906894546458058226e+00 9.667995914337472740e+00
8.377580409572781273e-01 1.028267758454895139e-02 1.979759487562691378e+00 1.035553399318300727e+01
8.552113334772214470e-01 1.042039793460912411e-02 2.053961948452847519e+00 1.106655850666594354e+01
8.726646259971647668e-01 1.055661279160754334e-02 2.129443725389608577e+00 1.180004882148123890e+01
8.901179185171079755e-01 1.069139533986969426e-02 2.206148267410975361e+00 1.255515603947893588e+01
9.075712110370514063e-01 1.082481559361938607e-02 2.284021112358845418e+00 1.333105109169322411e+01
9.250245035569946150e-01 1.095694067102166713e-02 2.363009883895187180e+00 1.412686005767230668e+01
9.424777960769379348e-01 1.108783495330905103e-02 2.443061741372881901e+00 1.494118970759959097e+01
9.599310885968812546e-01 1.121756032200508374e-02 2.524116181185989127e+00 1.577107277826430654e+01
9.773843811168245743e-01 1.134617628808892546e-02 2.606108863598755487e+00 1.661394482290425856e+01
9.948376736367677831e-01 1.147374020708294591e-02 2.688991102127811228e+00 1.747121001664366702e+01
1.012290966156711214e+00 1.160030737641978317e-02 2.772715121056556153e+00 1.834147468855431384e+01
1.029744258676654312e+00 1.172593123662041444e-02 2.857213233233270699e+00 1.921841311904882588e+01
1.047197551196597631e+00 1.185066344369944957e-02 2.942430865819066543e+00 2.010282655173348587e+01
1.064650843716540951e+00 1.197455405044631042e-02 3.028316668029053638e+00 2.099347264566840110e+01
1.082104136236484271e+00 1.209765157490499954e-02 3.114814483061072448e+00 2.188708897271821741e+01
1.099557428756427591e+00 1.222000314181825517e-02 3.201868278933598599e+00 2.278146447953680820e+01
1.117010721276370910e+00 1.234165457365356267e-02 3.289421728460951933e+00 2.367421533244943888e+01
1.134464013796314230e+00 1.246265047597909514e-02 3.377419122863147827e+00 2.456315271045270165e+01
1.151917306316257550e+00 1.258303436157096750e-02 3.465805835814605995e+00 2.544619523199015632e+01
1.169370598836200648e+00 1.270284869013076079e-02 3.554528393033733913e+00 2.632129667033644083e+01
1.186823891356144189e+00 1.282213500025917129e-02 3.643532363345228120e+00 2.718575551100970955e+01
1.204277183876087287e+00 1.294093395036240678e-02 3.732749470130620306e+00 2.803266424411670954e+01
1.221730476396030607e+00 1.305928540764247567e-02 3.822129826647655548e+00 2.886515590186098734e+01
1.239183768915973927e+00 1.317722853209148982e-02 3.911625912489233858e+00 2.968169701113972536e+01
1.256637061435917246e+00 1.329480180996704848e-02 4.001171890618223870e+00 3.047366349578573619e+01
1.274090353955860566e+00 1.341204316444087087e-02 4.090711490365744218e+00 3.124159313697743556e+01
1.291543646475803886e+00 1.352898998406467171e-02 4.180202422091122472e+00 3.198806181792771852e+01
1.308996938995747206e+00 1.364567919653507724e-02 4.269569326926939468e+00 3.269866919584958254e+01
1.326450231515690303e+00 1.376214734352813017e-02 4.358770424660763254e+00 3.338312806441937397e+01
1.343903524035633845e+00 1.387843060356845279e-02 4.447744516130445191e+00 3.403189997208024664e+01
1.361356816555576943e+00 1.399456488932232512e-02 4.536434281706349658e+00 3.464397187990782356e+01
1.378810109075520263e+00 1.411058587873958124e-02 4.624791980553130344e+00 3.522086642246373600e+01
1.396263401595463582e+00 1.422652906802717235e-02 4.712748289969238336e+00 3.575164262254183001e+01
1.413716694115406902e+00 1.434242985298636759e-02 4.800266012627429468e+00 3.624723937172395694e+01
1.431169986635350000e+00 1.445832354516027318e-02 4.887267032649096343e+00 3.668855560496788115e+01
1.448623279155293542e+00 1.457424545666784199e-02 4.973715911497627040e+00 3.709153504011951696e+01
1.466076571675236861e+00 1.469023094588478226e-02 5.059540559497397005e+00 3.743858740357020309e+01
1.483529864195180181e+00 1.480631545157309187e-02 5.144694532678245835e+00 3.773898830526355397e+01
1.500983156715123279e+00 1.492253458475171005e-02 5.229122566740763034e+00 3.798725098933142164e+01
1.518436449235066599e+00 1.503892414789134019e-02 5.312758803588930157e+00 3.817688988840703246e+01
1.535889741755009918e+00 1.515552020746250596e-02 5.395563896546976324e+00 3.831863372209005547e+01
1.553343034274953460e+00 1.527235916034092207e-02 5.477469582925381886e+00 3.839780268085737447e+01
1.570796326794896558e+00 1.538947775851885053e-02 5.558459346394592160e+00 3.843781557509780100e+01
1.588249619314839878e+00 1.550691321020740074e-02 5.638546678542271096e+00 3.845313780307412088e+01
1.605702911834782975e+00 1.562470321039829968e-02 5.717746912267316794e+00 3.844527473455389810e+01
1.623156204354726295e+00 1.574288600927117171e-02 5.796072401685745668e+00 3.841339111075113522e+01
1.640609496874669837e+00 1.586150049850829080e-02 5.873540402517636316e+00 3.836052709199616118e+01
1.658062789394613157e+00 1.598058623835238792e-02 5.950167234565618024e+00 3.828690705850830511e+01
1.675516081914556255e+00 1.610018357296606403e-02 6.025968963730809591e+00 3.819306415331554660e+01
1.692969374434499574e+00 1.622033367166762774e-02 6.100961267945629096e+00 3.807946463240458002e+01
1.710422666954442894e+00 1.634107861393883573e-02 6.175159667595568891e+00 3.794667969522855344e+01
1.727875959474386436e+00 1.646246148812704688e-02 6.248578141372933104e+00 3.779454667607151919e+01
1.745329251994329534e+00 1.658452643639479057e-02 6.321232562960149792e+00 3.762468276910834675e+01
1.762782544514272853e+00 1.670731879585139745e-02 6.393138727268010690e+00 3.743767819107136319e+01
1.780235837034215951e+00 1.683088514318297271e-02 6.464312411003364289e+00 3.723416100280763885e+01
1.797689129554159271e+00 1.695527343305844661e-02 6.534769389593515498e+00 3.701474692152243762e+01
1.815142422074102813e+00 1.708053308460846104e-02 6.604525252522621237e+00 3.677994889222802755e+01
1.832595714594046132e+00 1.720671509437801672e-02 6.673594492230380482e+00 3.652977936696738936e+01
1.850049007113989230e+00 1.733387217671498309e-02 6.741992671747514265e+00 3.626538267395624615e+01
1.867502299633932550e+00 1.746205885739130978e-02 6.809735573387279750e+00 3.598745553803675534e+01
1.884955592153875870e+00 1.759133165943646201e-02 6.876839035642530185e+00 3.569658128880763570e+01
1.902408884673818967e+00 1.772174919588589623e-02 6.943319047820017964e+00 3.539339473953514670e+01
1.919862177193762509e+00 1.785337238946302363e-02 7.009191700501035349e+00 3.507847195572132648e+01
1.937315469713705829e+00 1.798626458150714633e-02 7.074472466785024061e+00 3.475200285155718660e+01
1.954768762233649149e+00 1.812049178063691868e-02 7.139175354621182912e+00 3.441368554268442637e+01
1.972222054753592246e+00 1.825612279909184094e-02 7.203316281198455684e+00 3.406502332346459383e+01
1.989675347273535566e+00 1.839322953192490742e-02 7.266911980207087396e+00 3.370690391828871668e+01
2.007128639793478886e+00 1.853188713187674252e-02 7.329977982166808737e+00 3.333913221840217744e+01
2.024581932313422428e+00 1.867217431835964045e-02 7.392528472138211626e+00 3.296140507573367273e+01
2.042035224833365525e+00 1.881417361256636570e-02 7.454579933023397942e+00 3.257534325882523518e+01
2.059488517353308623e+00 1.895797166527786112e-02 7.516148788374958478e+00 3.218128958120983896e+01
2.076941809873252165e+00 1.910365958629325553e-02 7.577248821930052003e+00 3.177821153932801934e+01
2.094395102393195263e+00 1.925133328192269941e-02 7.637895913102192402e+00 3.136754774307076588e+01
2.111848394913138804e+00 1.940109389497632342e-02 7.698106715142971623e+00 3.095000548297001686e+01
2.129301687433081902e+00 1.955304819999171412e-02 7.757896178568334022e+00 3.052499564124234865e+01
2.146754979953025444e+00 1.970730910228976618e-02 7.817279472284948127e+00 3.009290079677041163e+01
2.164208272472968542e+00 1.986399618103784973e-02 7.876272391383873028e+00 2.965428315458286690e+01
2.181661564992911639e+00 2.002323624978257291e-02 7.934890702983071975e+00 2.920935034753634696e+01
2.199114857512855181e+00 2.018516401666994864e-02 7.993150106692209711e+00 2.875826474513221953e+01
2.216568150032798723e+00 2.034992282029915445e-02 8.051066249614931891e+00 2.830117076125408460e+01
2.234021442552741821e+00 2.051766542355348485e-02 8.108654584366734142e+00 2.783812254798719366e+01
2.251474735072684918e+00 2.068855490602426045e-02 8.165930390584653864e+00 2.736916513982223620e+01
2.268928027592628460e+00 2.086276567296162926e-02 8.222909136562330801e+00 2.689449447508246394e+01
2.286381320112572002e+00 2.104048459975468507e-02 8.279606488506253470e+00 2.641428076946819203e+01
2.303834612632515100e+00 2.122191224535026691e-02 8.336038071635885061e+00 2.592856363576925460e+01
2.321287905152458197e+00 2.140726449860561043e-02 8.392219454809147550e+00 2.543732210340175470e+01
2.338741197672401295e+00 2.159677343423089049e-02 8.448166209244762470e+00 2.494064349949390902e+01
2.356194490192344837e+00 2.179069183530882303e-02 8.503893910533530942e+00 2.443824087880927109e+01
2.373647782712288379e+00 2.198928641385471811e-02 8.559418126182801956e+00 2.393091399323456869e+01
2.391101075232231477e+00 2.219284481721503152e-02 8.614754420173039051e+00 2.341876215272628414e+01
2.408554367752174574e+00 2.240132237540633925e-02 8.669918366619475236e+00 2.294093026705009208e+01
2.426007660272118116e+00 2.261463725598394578e-02 8.724925538458773389e+00 2.249882788671517631e+01
2.443460952792061214e+00 2.283273774673431553e-02 8.779791471505175693e+00 2.208667432978502276e+01
2.460914245312004311e+00 2.305557144882294796e-02 8.834531673311335709e+00 2.170246430980229135e+01
2.478367537831947853e+00 2.328308482064322255e-02 8.889161679651149228e+00 2.134445791162446326e+01
2.495820830351891395e+00 2.351522582991012397e-02 8.943697062514637253e+00 2.101084789195946101e+01
2.513274122871834493e+00 2.375191032251892931e-02 8.998153398728236496e+00 2.070293923280320669e+01
2.530727415391777591e+00 2.399306195362347488e-02 9.052546258862619766e+00 2.041843466963223008e+01
2.548180707911721132e+00 2.423862835132181703e-02 9.106891210359311373e+00 2.015396103666425276e+01
2.565634000431664674e+00 2.448855441852958517e-02 9.161203819542485860e+00 1.990864291416900755e+01
2.583087292951607772e+00 2.474278476384130995e-02 9.215499655274006940e+00 1.968149218588083826e+01
2.600540585471550870e+00 2.500126162536101676e-02 9.269794292390983514e+00 1.947176680710444785e+01
2.617993877991494411e+00 2.526392782582423738e-02 9.324103302573131913e+00 1.927856801925117125e+01
2.635447170511437509e+00 2.553069196932868101e-02 9.378442238626794492e+00 1.910356340972068168e+01
2.652900463031380607e+00 2.580149600717358827e-02 9.432826637888032550e+00 1.894353622344231169e+01
2.670353755551324149e+00 2.607628124165591380e-02 9.487272037515060319e+00 1.879789204925637947e+01
2.687807048071267690e+00 2.635498873473454684e-02 9.541793979698066863e+00 1.866606218356984215e+01
2.705260340591210788e+00 2.663755829928227820e-02 9.596408025134312680e+00 1.854759781890472325e+01
2.722713633111153886e+00 2.692392898670517218e-02 9.651129755254112652e+00 1.844205922648390583e+01
2.740166925631096984e+00 2.721403912685554233e-02 9.705974738069995666e+00 1.834903176582991335e+01
2.757620218151040525e+00 2.750782652837907225e-02 9.760958507759365688e+00 1.826811809338777337e+01
2.775073510670984067e+00 2.780522867202572107e-02 9.816096645023556277e+00 1.819897051094992690e+01
2.792526803190927165e+00 2.810618293692144706e-02 9.871404870230088946e+00 1.814129079900917318e+01
2.809980095710870263e+00 2.841062686361493436e-02 9.926898844051438076e+00 1.809472997415363338e+01
2.827433388230813804e+00 2.871849839472469246e-02 9.982593754610560310e+00 1.805882032375597390e+01
2.844886680750756902e+00 2.902973631513954336e-02 1.003850468546459851e+01 1.803321846511648374e+01
2.862339973270700000e+00 2.934428009883132196e-02 1.009464808800143132e+01 1.801809224841287715e+01
2.879793265790643542e+00 2.966207168818870560e-02 1.015104119893084444e+01 1.801333992312061483e+01
2.897246558310587083e+00 2.998305237633406770e-02 1.020769642568784263e+01 1.801726325049326505e+01
2.914699850830530625e+00 3.030715235272802080e-02 1.026461912714818325e+01 1.802807444418141003e+01
2.932153143350473723e+00 3.063429611506759617e-02 1.032180678340264635e+01 1.804344163657031785e+01
2.949606435870416821e+00 3.096442353452569241e-02 1.037924855518481593e+01 1.805976697591531277e+01
2.967059728390360362e+00 3.129749411056258895e-02 1.043692919304423405e+01 1.807450962229942348e+01
2.984513020910303460e+00 3.163345061390186036e-02 1.049483462331805761e+01 1.808888675990733219e+01
3.001966313430246558e+00 3.197219454035325065e-02 1.055295228533969976e+01 1.810550289933888379e+01
3.019419605950190100e+00 3.231368228584374086e-02 1.061127003820559267e+01 1.812145331284044047e+01
3.036872898470133197e+00 3.265787149017552321e-02 1.066977543644459026e+01 1.813652064543356346e+01
3.054326190990076295e+00 3.300467116217442598e-02 1.072845571735296311e+01 1.815309661565351362e+01
3.071779483510019837e+00 3.335401442164701025e-02 1.078729788985664584e+01 1.816975212980674925e+01
3.089232776029963379e+00 3.370585397660131460e-02 1.084628894813263500e+01 1.818539315457640626e+01
3.106686068549906921e+00 3.406012926830817578e-02 1.090541590305391928e+01 1.820064931401613961e+01
3.124139361069850018e+00 3.441677580406306974e-02 1.096466578218948129e+01 1.821565772345100243e+01
3.141592653589793116e+00 3.477573635741527946e-02 1.102402562980429401e+01 1.822998308242818055e+01
3.159045946109736214e+00 3.513695451831268246e-02 1.108348250685932612e+01 1.824352505186192275e+01
3.176499238629679756e+00 3.550036703450497322e-02 1.114302349101153666e+01 1.825656947750702486e+01
3.193952531149622853e+00 3.586590540729489573e-02 1.120263566293803592e+01 1.826931159298029783e+01
3.211405823669565951e+00 3.623350288878041114e-02 1.126230606455160554e+01 1.828158134410957203e+01
3.228859116189509493e+00 3.660309601546753860e-02 1.132202173700034109e+01 1.829314704968867034e+01
3.246312408709452590e+00 3.697462415196493823e-02 1.138176973358653754e+01 1.830380723242895513e+01
3.263765701229396576e+00 3.734802704558624897e-02 1.144153711976667864e+01 1.831348335037368713e+01
3.281218993749339674e+00 3.772324401061641352e-02 1.150131097315144579e+01 1.832213732091015146e+01
3.298672286269282772e+00 3.810021392774654014e-02 1.156107838350571626e+01 1.832973095426992671e+01
3.316125578789226314e+00 3.847887524407389570e-02 1.162082645274855430e+01 1.833622589949481352e+01
3.333578871309169411e+00 3.885916597310191262e-02 1.168054229495322716e+01 1.834158361770230883e+01
3.351032163829112509e+00 3.924102369474019580e-02 1.174021303709450237e+01 1.834576558553145276e+01
3.368485456349056051e+00 3.962438555530448797e-02 1.179982589680719229e+01 1.834875709297559965e+01
3.385938748868999149e+00 4.000918802201981761e-02 1.185936832703072952e+01 1.835059991000114366e+01
3.403392041388942246e+00 4.039536639443703364e-02 1.191882803177156802e+01 1.835136419447938749e+01
3.420845333908885788e+00 4.078285653255248749e-02 1.197819287743438288e+01 1.835101081402155643e+01
3.438298626428828886e+00 4.117159535021216316e-02 1.203745011156883038e+01 1.834923519954281446e+01
