# angles(rad), pulling distance(m),                                     elastic band force(n), cable force(n)
0.000000000000000000e+00 3.319581465250555255e-04 2.431408966806759483e-02 1.780871964057103435e-02
1.745329251994329547e-02 6.541560262970790192e-04 4.904950456783516155e-02 3.765573649869792539e-02
3.490658503988659095e-02 9.668495762729528448e-04 7.422973602190893749e-02 5.977487971692026225e-02
5.235987755982988295e-02 1.270287390500563027e-03 9.987899116545156941e-02 8.442658125531692093e-02
6.981317007977318190e-02 1.564702591543954508e-03 1.260231910451380666e-01 1.119091502233411639e-01
8.726646259971647390e-02 1.850326147045331000e-03 1.526900968226391209e-01 1.425573047705867014e-01
1.047197551196597659e-01 2.127361820418453148e-03 1.799094960086503048e-01 1.767652638228302819e-01
1.221730476396030718e-01 2.396016265246547327e-03 2.077134181724658302e-01 2.149693713403011408e-01
1.396263401595463638e-01 2.656521238051219591e-03 2.361363386058464853e-01 2.576413145347615785e-01
1.570796326794896558e-01 2.909104462393061370e-03 2.652156720882745677e-01 3.053367852721500797e-01
1.745329251994329478e-01 3.153992551969971459e-03 2.949909123600428229e-01 3.586709875798134717e-01
1.919862177193762398e-01 3.391411046375538384e-03 3.255032655777556072e-01 4.183275880716130768e-01
2.094395102393195318e-01 3.621584505598881946e-03 3.567640001972445796e-01 4.845347838793008233e-01
2.268928027592628516e-01 3.844739887638870188e-03 3.887908289151740804e-01 5.579850761805431603e-01
2.443460952792061436e-01 4.061097305642361738e-03 4.215985245181138596e-01 6.392975192011045582e-01
2.617993877991494078e-01 4.270897860971269167e-03 4.551952631796858384e-01 7.289340236997071676e-01
2.792526803190927276e-01 4.474494900385492593e-03 4.895980728123893178e-01 8.272983410743253163e-01
2.967059728390360474e-01 4.672297006947799709e-03 5.248240071179712807e-01 9.346420176221146292e-01
3.141592653589793116e-01 4.864682958995579509e-03 5.608801821221132133e-01 1.051178310458315224e+00
3.316125578789225758e-01 5.051996061581143400e-03 5.977820628766087330e-01 1.177668945575887305e+00
3.490658503988658956e-01 5.234551575457747040e-03 6.355454015407839830e-01 1.314685912531060152e+00
3.665191429188092154e-01 5.412637977909038126e-03 6.741863605894319322e-01 1.462840912731594445e+00
3.839724354387524796e-01 5.586520542570826142e-03 7.137119904323669939e-01 1.622354489834221036e+00
4.014257279586957439e-01 5.756443775139597450e-03 7.541376028915945939e-01 1.794132209854707449e+00
4.188790204786390636e-01 5.922633410530973863e-03 7.954779581910810249e-01 1.978784136994127474e+00
4.363323129985823834e-01 6.085298546723820132e-03 8.377476720383146835e-01 2.176948005088447768e+00
4.537856055185257032e-01 6.244633013199500822e-03 8.809608663001025075e-01 2.389259141133144748e+00
4.712388980384689674e-01 6.400817180992333585e-03 9.251312634708767080e-01 2.616360923138584038e+00
4.886921905584122872e-01 6.554018875179092388e-03 9.702722113034124574e-01 2.858911417808065458e+00
5.061454830783556069e-01 6.704394913020835824e-03 1.016396770954649975e+00 3.117574725606258035e+00
5.235987755982988157e-01 6.852091714321551820e-03 1.063517846803400779e+00 3.393039299726559044e+00
5.410520681182421354e-01 6.997246611487707192e-03 1.111648367926068692e+00 3.686008277915701292e+00
5.585053606381854552e-01 7.139988297520075307e-03 1.160801495074258227e+00 3.997222189757171584e+00
5.759586531581287749e-01 7.280437803016584497e-03 1.210990993954917938e+00 4.327464943413439791e+00
5.934119456780720947e-01 7.418709076135114600e-03 1.262231072422626221e+00 4.677531184649746265e+00
6.108652381980153034e-01 7.554909412975378130e-03 1.314538217486564742e+00 5.048426665405601810e+00
6.283185307179586232e-01 7.689140312238385011e-03 1.367927073898396406e+00 5.440778727640243950e+00
6.457718232379019430e-01 7.821497613319506464e-03 1.422404978402674214e+00 5.854580136258346279e+00
6.632251157578451517e-01 7.952072093880173734e-03 1.477987883431666649e+00 6.291494310836288406e+00
6.806784082777884715e-01 8.080949970091609938e-03 1.534690384645499117e+00 6.752189433619547820e+00
6.981317007977317912e-01 8.208212962538088617e-03 1.592507713957155957e+00 7.234981761719745386e+00
7.155849933176750000e-01 8.333938847759944646e-03 1.651422185939908527e+00 7.738475329369949307e+00
7.330382858376184307e-01 8.458201798021064421e-03 1.711408726032859873e+00 8.261632927905637303e+00
7.504915783575616395e-01 8.581072410516260227e-03 1.772434994595760482e+00 8.803170407790803509e+00
7.679448708775049592e-01 8.702618113078720505e-03 1.834463855025938894e+00 9.361886107749192831e+00
7.853981633974482790e-01 8.822903500198832002e-03 1.897462079730933393e+00 9.937760964158606214e+00
8.028514559173914877e-01 8.941990344362136384e-03 1.961398152265086958e+00 1.053047424446051039e+01
8.203047484373349185e-01 9.059937785399735377e-03 2.026241100834464071e+00 1.113949114408373298e+01
8.377580409572781273e-01 9.176802724230870983e-03 2.091960498296850268e+00 1.176421130565405093e+01
8.552113334772214470e-01 9.292639871953922368e-03 2.158526462161751702e+00 1.240399969319176599e+01
8.726646259971647668e-01 9.407501772503278764e-03 2.225909610256978866e+00 1.305818519432253488e+01
8.901179185171079755e-01 9.521439092100366861e-03 2.294079929433820109e+00 1.372580657151825889e+01
9.075712110370514063e-01 9.634500819167498425e-03 2.363005578546527818e+00 1.440555505237970380e+01
9.250245035569946150e-01 9.746734268304827961e-03 2.432653394187320739e+00 1.509612298460099566e+01
9.424777960769379348e-01 9.858185119645399702e-03 2.502992398836233701e+00 1.579691782164460534e+01
9.599310885968812546e-01 9.968897687927757295e-03 2.573994155746655466e+00 1.650743995650713458e+01
9.773843811168245743e-01 1.007891503506826852e-02 2.645625787558686159e+00 1.722551009022059176e+01
9.948376736367677831e-01 1.018827897054114077e-02 2.717851211591377325e+00 1.794905746269927604e+01
1.012290966156711214e+00 1.029703007981373937e-02 2.790644165396605647e+00 1.867927905998174865e+01
1.029744258676654312e+00 1.040520794202072496e-02 2.863977023095515495e+00 1.941465797186442899e+01
1.047197551196597631e+00 1.051285123054827159e-02 2.937812836923543891e+00 2.015135403756903898e+01
1.064650843716540951e+00 1.061999771357700559e-02 3.012120020567601308e+00 2.088936091968936282e+01
1.082104136236484271e+00 1.072668426256660236e-02 3.086869626424604718e+00 2.162805809096839127e+01
1.099557428756427591e+00 1.083294700241416164e-02 3.162032016520914368e+00 2.236587201343710518e+01
1.117010721276370910e+00 1.093882144019729837e-02 3.237576573463654572e+00 2.310107075245903019e+01
1.134464013796314230e+00 1.104434246934386625e-02 3.313472129115055509e+00 2.383200869139711386e+01
1.151917306316257550e+00 1.114954436983368186e-02 3.389687130583418639e+00 2.455706678604335380e+01
1.169370598836200648e+00 1.125446087459192057e-02 3.466189836003523261e+00 2.527466012759212077e+01
1.186823891356144189e+00 1.135912533136210212e-02 3.542948466156301546e+00 2.598321143166928593e+01
1.204277183876087287e+00 1.146357072690970362e-02 3.619931328123255021e+00 2.668118324428715127e+01
1.221730476396030607e+00 1.156782968702216134e-02 3.697106910124276613e+00 2.736708453653037765e+01
1.239183768915973927e+00 1.167193448763358815e-02 3.774443950685801852e+00 2.803946822788014970e+01
1.256637061435917246e+00 1.177591718602030886e-02 3.851911485894029319e+00 2.869689797265150233e+01
1.274090353955860566e+00 1.187980970633997595e-02 3.929478874222274598e+00 2.933795549733475028e+01
1.291543646475803886e+00 1.198364384109806315e-02 4.007115820082931101e+00 2.996126800747716246e+01
1.308996938995747206e+00 1.208745125117844169e-02 4.084792322905502537e+00 3.056548488726446067e+01
1.326450231515690303e+00 1.219126351389015865e-02 4.162478817955571841e+00 3.114934417575546988e+01
1.343903524035633845e+00 1.229511226825390213e-02 4.240143088888742362e+00 3.171031021685877960e+01
1.361356816555576943e+00 1.239902924235715062e-02 4.317748652122365804e+00 3.224509941140584601e+01
1.378810109075520263e+00 1.250304625335417474e-02 4.395266542748554883e+00 3.275539143722165392e+01
1.396263401595463582e+00 1.260719521276721863e-02 4.472667551779800910e+00 3.323979265084339119e+01
1.413716694115406902e+00 1.271150823781286646e-02 4.549922717964216545e+00 3.369713758648596524e+01
1.431169986635350000e+00 1.281601775713938317e-02 4.627002001314517443e+00 3.412569501994074983e+01
1.448623279155293542e+00 1.292075651500915884e-02 4.703866365719462372e+00 3.452014381308239876e+01
1.466076571675236861e+00 1.302575757129870691e-02 4.780487457249033234e+00 3.488404592881213517e+01
1.483529864195180181e+00 1.313105434236622529e-02 4.856836232761296834e+00 3.521603706130262168e+01
1.500983156715123279e+00 1.323668076572820200e-02 4.932883730118680532e+00 3.551511548818763231e+01
1.518436449235066599e+00 1.334267134153239304e-02 5.008599964489837575e+00 3.577981588507275035e+01
1.535889741755009918e+00 1.344906113255782062e-02 5.083945979798489390e+00 3.600487113756072688e+01
1.553343034274953460e+00 1.355588577347313292e-02 5.158892791137779099e+00 3.619413661718251518e+01
1.570796326794896558e+00 1.366318162018630503e-02 5.233412516584523999e+00 3.634739608588814264e+01
1.588249619314839878e+00 1.377098587061077392e-02 5.307489954710205460e+00 3.647029288498980293e+01
1.605702911834782975e+00 1.387933656812609731e-02 5.381129219581196388e+00 3.657220571650940144e+01
1.623156204354726295e+00 1.398827260336337960e-02 5.454339693496097929e+00 3.665589563489544389e+01
1.640609496874669837e+00 1.409783383477350091e-02 5.527129591515818063e+00 3.672094536818503485e+01
1.658062789394613157e+00 1.420806128367661271e-02 5.599506556673276236e+00 3.676718412557373483e+01
1.675516081914556255e+00 1.431899715203303891e-02 5.671479608074285750e+00 3.679546565049867723e+01
1.692969374434499574e+00 1.443068482340649321e-02 5.743057622089631664e+00 3.680591187100127826e+01
1.710422666954442894e+00 1.454316898876677894e-02 5.814249459662530484e+00 3.679869978274790299e+01
1.727875959474386436e+00 1.465649589595922030e-02 5.885063929852222486e+00 3.677393961852901327e+01
1.745329251994329534e+00 1.477071337909800774e-02 5.955509817377009796e+00 3.673178249234530313e+01
1.762782544514272853e+00 1.488587086319234469e-02 6.025595888219205776e+00 3.667241808984074680e+01
1.780235837034215951e+00 1.500201956412340436e-02 6.095330900395460105e+00 3.659601624039445511e+01
1.797689129554159271e+00 1.511921276071017013e-02 6.164723611697257688e+00 3.650270649671793421e+01
1.815142422074102813e+00 1.523750581418304578e-02 6.233782788241622796e+00 3.639266157003153523e+01
1.832595714594046132e+00 1.535695621152545660e-02 6.302517207601779248e+00 3.626608788333379607e+01
1.850049007113989230e+00 1.547762393891195971e-02 6.370935675919672470e+00 3.612313500378415654e+01
1.867502299633932550e+00 1.559957167239255614e-02 6.439046998829324409e+00 3.596393281368153794e+01
1.884955592153875870e+00 1.572286478525485726e-02 6.506860074176060493e+00 3.578871375999560200e+01
1.902408884673818967e+00 1.584757163807572200e-02 6.574383733230434679e+00 3.559759833992107048e+01
1.919862177193762509e+00 1.597376399685266832e-02 6.641625632583861183e+00 3.539006059144473681e+01
1.937315469713705829e+00 1.610151706682462491e-02 6.708594468578827019e+00 3.516680756255831142e+01
1.954768762233649149e+00 1.623090975266034200e-02 6.775299165481982300e+00 3.492811624881873200e+01
1.972222054753592246e+00 1.636202523232513709e-02 6.841748662420243932e+00 3.467407189129335876e+01
1.989675347273535566e+00 1.649495103762870993e-02 6.907951916440612905e+00 3.440482413781001725e+01
2.007128639793478886e+00 1.662977942244938181e-02 6.973918087721023618e+00 3.412061011351884332e+01
2.024581932313422428e+00 1.676660802692852767e-02 7.039656082753817046e+00 3.382135470592885440e+01
2.042035224833365525e+00 1.690553998826223314e-02 7.105173703292402720e+00 3.350662224042999782e+01
2.059488517353308623e+00 1.704668463890599353e-02 7.170479346118789898e+00 3.317679847842827456e+01
2.076941809873252165e+00 1.719015808979275015e-02 7.235582029561104633e+00 3.283226293645310534e+01
2.094395102393195263e+00 1.733608356789130556e-02 7.300491258097735248e+00 3.247337351065602462e+01
2.111848394913138804e+00 1.748459246327025221e-02 7.365215986948184579e+00 3.209986893133883257e+01
2.129301687433081902e+00 1.763582468673404943e-02 7.429763864164937281e+00 3.171119716879519146e+01
2.146754979953025444e+00 1.778992989155405574e-02 7.494143428360468207e+00 3.130781264008361120e+01
2.164208272472968542e+00 1.794706816792406706e-02 7.558364249284947434e+00 3.089026863145301149e+01
2.181661564992911639e+00 1.810741109774129456e-02 7.622435415545096404e+00 3.045836366925202299e+01
2.199114857512855181e+00 1.827114270502835924e-02 7.686364746982948581e+00 3.001156390046124756e+01
2.216568150032798723e+00 1.843846180608686366e-02 7.750160786569929350e+00 2.955009686387138146e+01
2.234021442552741821e+00 1.860958326861309256e-02 7.813833174750402399e+00 2.907440199115345791e+01
2.251474735072684918e+00 1.878473608633558778e-02 7.877390982923339280e+00 2.858473597547819978e+01
2.268928027592628460e+00 1.896416994131343292e-02 7.940841349049475362e+00 2.807994572757523954e+01
2.286381320112572002e+00 1.914817065353850017e-02 8.004193875786512535e+00 2.755890998421390492e+01
2.303834612632515100e+00 1.933700794389531935e-02 8.067458056374857023e+00 2.702756020291308303e+01
2.321287905152458197e+00 1.953088718852689226e-02 8.130641020873429881e+00 2.649680237555627471e+01
2.338741197672401295e+00 1.972994241993149614e-02 8.193752408262042763e+00 2.597867329359981881e+01
2.356194490192344837e+00 1.993427960857116488e-02 8.256801625152483837e+00 2.547675633355110492e+01
2.373647782712288379e+00 2.014394051845613473e-02 8.319795866369599224e+00 2.499746986554560024e+01
2.391101075232231477e+00 2.035886301265181150e-02 8.382744472249726186e+00 2.455220333973166547e+01
2.408554367752174574e+00 2.057895105071058661e-02 8.445657106787955115e+00 2.414209075972858543e+01
2.426007660272118116e+00 2.080414902397762639e-02 8.508541470995190537e+00 2.375928224273781453e+01
2.443460952792061214e+00 2.103441588658744310e-02 8.571405929308344440e+00 2.340053556213068120e+01
2.460914245312004311e+00 2.126969806140760130e-02 8.634259841518257872e+00 2.306579367906599742e+01
2.478367537831947853e+00 2.150992636749055054e-02 8.697112629344141865e+00 2.275492774782487970e+01
2.495820830351891395e+00 2.175501013625979682e-02 8.759972863905199247e+00 2.246798928133181761e+01
2.513274122871834493e+00 2.200489252740742141e-02 8.822848225169462211e+00 2.220003446379543632e+01
2.530727415391777591e+00 2.225952969421706937e-02 8.885747311770280987e+00 2.194908923463796668e+01
2.548180707911721132e+00 2.251886746720147339e-02 8.948679429414314157e+00 2.171528428465783378e+01
2.565634000431664674e+00 2.278283730392366771e-02 9.011653536044379464e+00 2.149869991734331975e+01
2.583087292951607772e+00 2.305135182316376055e-02 9.074678471983062877e+00 2.129981764038205228e+01
2.600540585471550870e+00 2.332435287474808952e-02 9.137763180183574363e+00 2.111541770560482334e+01
2.617993877991494411e+00 2.360180160850448156e-02 9.200916288832264200e+00 2.094320122456677424e+01
2.635447170511437509e+00 2.388363991789991397e-02 9.264146061213224925e+00 2.078389726403838367e+01
2.652900463031380607e+00 2.416977887387211643e-02 9.327461022060514750e+00 2.063919704361196850e+01
2.670353755551324149e+00 2.446015219158352919e-02 9.390870010429363646e+00 2.050689684430634330e+01
2.687807048071267690e+00 2.475471813813602887e-02 9.454381845645874805e+00 2.038474402361403648e+01
2.705260340591210788e+00 2.505342189177674553e-02 9.518005297873735060e+00 2.027320875592884519e+01
2.722713633111153886e+00 2.535617689101813885e-02 9.581749154364258558e+00 2.017399034052015239e+01
2.740166925631096984e+00 2.566291997371744626e-02 9.645622197289091204e+00 2.008505734579518176e+01
2.757620218151040525e+00 2.597360651096268166e-02 9.709633143239186026e+00 2.000481925731295973e+01
2.775073510670984067e+00 2.628817941267018454e-02 9.773790745322454399e+00 1.993378876819377155e+01
2.792526803190927165e+00 2.660654863383259128e-02 9.838104016354568770e+00 1.987380085725003553e+01
2.809980095710870263e+00 2.692866391551202929e-02 9.902581951634568114e+00 1.982203498242623851e+01
2.827433388230813804e+00 2.725448248010677380e-02 9.967232757627728645e+00 1.977756031500464573e+01
2.844886680750756902e+00 2.758391541670466435e-02 1.003206423667945479e+01 1.974282138035636791e+01
2.862339973270700000e+00 2.791689534907732667e-02 1.009708573447101543e+01 1.971673287056623991e+01
2.879793265790643542e+00 2.825337755512096274e-02 1.016230771648834441e+01 1.969809515137979261e+01
2.897246558310587083e+00 2.859330891225165053e-02 1.022773489218413978e+01 1.968549807847474753e+01
2.914699850830530625e+00 2.893662124783536599e-02 1.029336313424737170e+01 1.967698965056263560e+01
2.932153143350473723e+00 2.928323584543149338e-02 1.035918264656048571e+01 1.967131085902950716e+01
2.949606435870416821e+00 2.963308763692330469e-02 1.042518152192680958e+01 1.966690674937001049e+01
2.967059728390360362e+00 2.998612227421439472e-02 1.049134613389652593e+01 1.966254221726417484e+01
2.984513020910303460e+00 3.034227970804422025e-02 1.055766268671376196e+01 1.965837937625511955e+01
3.001966313430246558e+00 3.070149729923086004e-02 1.062411792514476083e+01 1.965461344758312023e+01
3.019419605950190100e+00 3.106371746624399244e-02 1.069069913401339456e+01 1.965102268774730021e+01
3.036872898470133197e+00 3.142888273969093177e-02 1.075739389648111377e+01 1.964759200471373646e+01
3.054326190990076295e+00 3.179692604207030177e-02 1.082418972351563191e+01 1.964471843086251823e+01
3.071779483510019837e+00 3.216777355453875192e-02 1.089107402249566370e+01 1.964262470807931393e+01
3.089232776029963379e+00 3.254135779870068190e-02 1.095803409721093047e+01 1.964083853503362320e+01
3.106686068549906921e+00 3.291762011640089747e-02 1.102505714786216373e+01 1.963877138083863372e+01
3.124139361069850018e+00 3.329650449623301756e-02 1.109213027106109628e+01 1.963617028865485636e+01
3.141592653589793116e+00 3.367795182929128606e-02 1.115924045983046753e+01 1.963308349222706894e+01
3.159045946109736214e+00 3.406189980727344913e-02 1.122637460360402706e+01 1.962956155297678862e+01
3.176499238629679756e+00 3.444828490143079375e-02 1.129351949827404056e+01 1.962555462495536318e+01
3.193952531149622853e+00 3.483704401485903518e-02 1.136066191769717015e+01 1.962095037916569140e+01
3.211405823669565951e+00 3.522811453316474634e-02 1.142778874900520059e+01 1.961567573290202304e+01
3.228859116189509493e+00 3.562143428088631464e-02 1.149488702392084249e+01 1.960967111677498664e+01
3.246312408709452590e+00 3.601694114883394193e-02 1.156194391875773775e+01 1.960289745392939054e+01
3.263765701229396576e+00 3.641457290498763960e-02 1.162894675442045234e+01 1.959532648634110785e+01
3.281218993749339674e+00 3.681426719301545553e-02 1.169588298212886102e+01 1.958692705881708562e+01
3.298672286269282772e+00 3.721596153227348103e-02 1.176274006721014587e+01 1.957763494788441605e+01
3.316125578789226314e+00 3.761959331780582311e-02 1.182950543112416497e+01 1.956736965078749435e+01
3.333578871309169411e+00 3.802509982034463221e-02 1.189616612857851408e+01 1.955595597601883284e+01
3.351032163829112509e+00 3.843241818631009526e-02 1.196270812137048090e+01 1.954300380484508537e+01
3.368485456349056051e+00 3.884148543781042878e-02 1.202911788006234595e+01 1.952859371560496626e+01
3.385938748868999149e+00 3.925223756421013926e-02 1.209538585961331592e+01 1.951388030127867879e+01
3.403392041388942246e+00 3.966460739429587823e-02 1.216149995752951263e+01 1.949819167985080171e+01
3.420845333908885788e+00 4.007852971141617759e-02 1.222744205808907836e+01 1.947957818245496142e+01
3.438298626428828886e+00 4.049394275937430454e-02 1.229320029857710317e+01 1.945964927136268940e+01
