# angles(rad), pulling distance(m),                                     elastic band force(n), cable force(n)
0.000000000000000000e+00 3.399731992648686901e-04 2.295374459987328114e-02 1.549752722554258687e-02
1.745329251994329547e-02 6.735934798079266797e-04 4.628052112970586912e-02 3.235940489947256721e-02
3.490658503988659095e-02 1.001183065574655622e-03 7.000276106610048288e-02 5.069215769889096751e-02
5.235987755982988295e-02 1.322869309824173866e-03 9.414314526155391494e-02 7.064808448009032849e-02
6.981317007977318190e-02 1.638721219247743759e-03 1.187246125149810372e-01 9.239852879278001585e-02
8.726646259971647390e-02 1.948805332140701079e-03 1.437709960991628844e-01 1.161279590555034935e-01
1.047197551196597659e-01 2.253180664877082670e-03 1.693080865719197581e-01 1.420494849463098119e-01
1.221730476396030718e-01 2.551914033083466701e-03 1.953636827352397409e-01 1.703966735584645231e-01
1.396263401595463638e-01 2.845072782809948079e-03 2.219675513113554544e-01 2.014333724904712741e-01
1.570796326794896558e-01 3.132724561701786571e-03 2.491517001332386738e-01 2.354575007927874331e-01
1.745329251994329478e-01 3.414937053317641802e-03 2.769506518103431181e-01 2.728064141504421558e-01
1.919862177193762398e-01 3.691777747907853090e-03 3.054017886033182361e-01 3.138638297824699053e-01
2.094395102393195318e-01 3.963313793948990311e-03 3.345454532693049043e-01 3.590639492531332300e-01
2.268928027592628516e-01 4.229611945955074996e-03 3.644254539970185336e-01 4.089038075780370152e-01
2.443460952792061436e-01 4.490738595667707195e-03 3.950902894531681531e-01 4.639656170573469574e-01
2.617993877991494078e-01 4.746759853900812606e-03 4.265889668004683721e-01 5.248387699482307545e-01
2.792526803190927276e-01 4.997741644302864522e-03 4.589652900525645896e-01 5.920592314059952566e-01
2.967059728390360474e-01 5.243749780349571225e-03 4.922578686096762968e-01 6.661785266294009134e-01
3.141592653589793116e-01 5.484850021390072321e-03 5.265050181469397295e-01 7.478754899116364374e-01
3.316125578789225758e-01 5.721108136162945425e-03 5.617428823796283277e-01 8.378387105138015434e-01
3.490658503988658956e-01 5.952590030643177890e-03 5.980093203944764069e-01 9.369055838723351348e-01
3.665191429188092154e-01 6.179362001999620831e-03 6.353425654432373060e-01 1.045958173037105032e+00
3.839724354387524796e-01 6.401491133715882589e-03 6.737807780618423337e-01 1.165940217087436004e+00
4.014257279586957439e-01 6.619045714324311991e-03 7.133621012527970873e-01 1.297872736253086412e+00
4.188790204786390636e-01 6.832095167546479129e-03 7.541246470752224207e-01 1.442859393315057082e+00
4.363323129985823834e-01 7.040709230480566086e-03 7.961065089089520708e-01 1.602098774736408160e+00
4.537856055185257032e-01 7.244947520671369580e-03 8.393457626298148622e-01 1.776977488206366473e+00
4.712388980384689674e-01 7.444875614904301192e-03 8.838804666889457096e-01 1.968875617939777500e+00
4.886921905584122872e-01 7.640582849475380592e-03 9.297486579284454100e-01 2.179065548598380531e+00
5.061454830783556069e-01 7.832299971736070981e-03 9.769883452430575543e-01 2.407329266947048740e+00
5.235987755982988157e-01 8.020243190886464438e-03 1.025637503255090177e+00 2.654865718725200274e+00
5.410520681182421354e-01 8.204612519590627484e-03 1.075734069704546991e+00 2.922969003774530172e+00
5.585053606381854552e-01 8.385595945752223959e-03 1.127315951468756960e+00 3.212950453686802099e+00
5.759586531581287749e-01 8.563368517962844512e-03 1.180421045015333625e+00 3.526211565731175224e+00
5.934119456780720947e-01 8.738094573967460435e-03 1.235087279127935256e+00 3.864195867187685707e+00
6.108652381980153034e-01 8.909928204281642936e-03 1.291352684348374469e+00 4.228420358373006671e+00
6.283185307179586232e-01 9.079014274469865073e-03 1.349255509368326500e+00 4.620469656618814369e+00
6.457718232379019430e-01 9.245489184242498826e-03 1.408834348273204862e+00 5.042003914828192990e+00
6.632251157578451517e-01 9.409481553085102812e-03 1.470128430522882779e+00 5.494778420119372342e+00
6.806784082777884715e-01 9.571112838294785694e-03 1.533177661701965677e+00 5.980628855722416759e+00
6.981317007977317912e-01 9.730497922860048207e-03 1.598019043592251442e+00 6.501095341269930827e+00
7.155849933176750000e-01 9.887745634212848772e-03 1.664682727710425469e+00 7.057265416606728792e+00
7.330382858376184307e-01 1.004295918143213381e-02 1.733210229670760771e+00 7.652203660008829900e+00
7.504915783575616395e-01 1.019623661966077843e-02 1.803642511298767959e+00 8.287890167014843712e+00
7.679448708775049592e-01 1.034767121798362000e-02 1.876017749907927357e+00 8.966064148375325615e+00
7.853981633974482790e-01 1.049735180612229417e-02 1.950381286526310598e+00 9.689783560045638566e+00
8.028514559173914877e-01 1.064536313311969205e-02 2.026733382752656798e+00 1.045496621132250148e+01
8.203047484373349185e-01 1.079178611577503652e-02 2.105021524068026118e+00 1.125494232937730210e+01
8.377580409572781273e-01 1.093669816828943785e-02 2.185181609259687630e+00 1.208763114718146703e+01
8.552113334772214470e-01 1.108017340025043394e-02 2.267144649126055178e+00 1.295150840457649544e+01
8.726646259971647668e-01 1.122228289781223437e-02 2.350836766476688044e+00 1.384471199376307737e+01
8.901179185171079755e-01 1.136309489552644186e-02 2.436181012255451250e+00 1.476536335301966218e+01
9.075712110370514063e-01 1.150267501366930394e-02 2.523103543425596840e+00 1.571244882988603031e+01
9.250245035569946150e-01 1.164108640625056111e-02 2.611531092662667142e+00 1.668441375914885683e+01
9.424777960769379348e-01 1.177838996881112876e-02 2.701389886146615460e+00 1.767933995097856581e+01
9.599310885968812546e-01 1.191464445877702880e-02 2.792607547079554831e+00 1.869554011849603725e+01
9.773843811168245743e-01 1.204990668721716771e-02 2.885117577437535719e+00 1.973221332762610558e+01
9.948376736367677831e-01 1.218423160949082783e-02 2.978852738841681003e+00 2.078715085393040596e+01
1.012290966156711214e+00 1.231767250785701165e-02 3.073739548002062172e+00 2.185666774362036335e+01
1.029744258676654312e+00 1.245028105828420613e-02 3.169701648505213853e+00 2.293752757110960161e+01
1.047197551196597631e+00 1.258210749855102721e-02 3.266665010503976507e+00 2.402756391669859681e+01
1.064650843716540951e+00 1.271320068963775751e-02 3.364559905113094551e+00 2.512512164718007313e+01
1.082104136236484271e+00 1.284360825142495839e-02 3.463326815046001261e+00 2.623023411541484151e+01
1.099557428756427591e+00 1.297337664252407909e-02 3.562873781305816223e+00 2.733125324985494231e+01
1.117010721276370910e+00 1.310255124785382648e-02 3.663144667620654715e+00 2.843490495551823116e+01
1.134464013796314230e+00 1.323117648894888039e-02 3.764053379401057775e+00 2.952964553103075929e+01
1.151917306316257550e+00 1.335929586753109577e-02 3.865546050853613913e+00 3.062179973595903704e+01
1.169370598836200648e+00 1.348695209075504928e-02 3.967536920363930353e+00 3.169861445863854499e+01
1.186823891356144189e+00 1.361418710594993614e-02 4.069952727435699913e+00 3.276043883720387839e+01
1.204277183876087287e+00 1.374104219873338931e-02 4.172725840133027830e+00 3.380581840376670044e+01
1.221730476396030607e+00 1.386755805999783861e-02 4.275785620775217843e+00 3.483053616724254198e+01
1.239183768915973927e+00 1.399377483350746840e-02 4.379059854388124506e+00 3.583074086206720210e+01
1.256637061435917246e+00 1.411973221823390433e-02 4.482475987787322147e+00 3.680295011828884810e+01
1.274090353955860566e+00 1.424546949200698569e-02 4.585961826726723700e+00 3.774394757749890772e+01
1.291543646475803886e+00 1.437102560452748271e-02 4.689445940354041831e+00 3.865069942027277250e+01
1.308996938995747206e+00 1.449643922839392515e-02 4.792857772498209101e+00 3.952028401541731029e+01
1.326450231515690303e+00 1.462174880475795684e-02 4.896127121703301555e+00 4.034965851411413951e+01
1.343903524035633845e+00 1.474699263542544186e-02 4.999181098394018363e+00 4.113460037439726591e+01
1.361356816555576943e+00 1.487220890325904876e-02 5.101940682583636644e+00 4.186942417091309920e+01
1.378810109075520263e+00 1.499743575995752566e-02 5.204335951735081345e+00 4.255471985658603984e+01
1.396263401595463582e+00 1.512271137506310606e-02 5.306299001650582881e+00 4.318848720206948855e+01
1.413716694115406902e+00 1.524807397871003403e-02 5.407761183424496743e+00 4.376769724150347685e+01
1.431169986635350000e+00 1.537356195367414746e-02 5.508644761342887719e+00 4.428566108940649571e+01
1.448623279155293542e+00 1.549921385608766730e-02 5.608874544365542114e+00 4.474076936240350477e+01
1.466076571675236861e+00 1.562506850391942939e-02 5.708381802167913577e+00 4.513344794242373581e+01
1.483529864195180181e+00 1.575116502932807916e-02 5.807097934963289632e+00 4.546154218332429764e+01
1.500983156715123279e+00 1.587754292427001612e-02 5.904952685591508654e+00 4.572221058005982997e+01
1.518436449235066599e+00 1.600424213843189281e-02 6.001873078000338424e+00 4.591219430647577582e+01
1.535889741755009918e+00 1.613130310332207620e-02 6.097781602758551855e+00 4.602745133596379645e+01
1.553343034274953460e+00 1.625876683270695289e-02 6.192607264819162793e+00 4.606942591446696866e+01
1.570796326794896558e+00 1.638667497648058774e-02 6.286279453102686432e+00 4.603690860966600695e+01
1.588249619314839878e+00 1.651506988367970954e-02 6.378728035084156645e+00 4.592895267835228879e+01
1.605702911834782975e+00 1.664399470656780650e-02 6.469883613180100745e+00 4.574495180689962837e+01
1.623156204354726295e+00 1.677349343499280263e-02 6.559665878200565459e+00 4.547856704735137612e+01
1.640609496874669837e+00 1.690361102348888339e-02 6.647998170366436810e+00 4.513094067376437124e+01
1.658062789394613157e+00 1.703439343884692245e-02 6.734819208198397966e+00 4.470967994172891480e+01
1.675516081914556255e+00 1.716588777030987611e-02 6.820086914040035531e+00 4.422496075160464812e+01
1.692969374434499574e+00 1.729814232235987390e-02 6.903792018727303414e+00 4.369472541468619653e+01
1.710422666954442894e+00 1.743120669565112468e-02 6.985969713219530419e+00 4.314384614192236000e+01
1.727875959474386436e+00 1.756513192713387780e-02 7.066624905674312451e+00 4.255807404344960077e+01
1.745329251994329534e+00 1.769997055451318080e-02 7.145788938622309239e+00 4.195307249644651648e+01
1.762782544514272853e+00 1.783577678873327424e-02 7.223476494005998561e+00 4.132168404591863720e+01
1.780235837034215951e+00 1.797260658433378830e-02 7.299703791661814378e+00 4.066633961442565948e+01
1.797689129554159271e+00 1.811051782864762233e-02 7.374493990849904534e+00 3.999237895584104763e+01
1.815142422074102813e+00 1.824957043473703425e-02 7.447867577661296146e+00 3.930000117494320477e+01
1.832595714594046132e+00 1.838982654348540746e-02 7.519843957705559134e+00 3.859020126848099608e+01
1.850049007113989230e+00 1.853135064439864407e-02 7.590441878021191080e+00 3.786418054642907549e+01
1.867502299633932550e+00 1.867420979795924793e-02 7.659680034775018242e+00 3.712342637582092664e+01
1.884955592153875870e+00 1.881847378283167324e-02 7.727577782313746368e+00 3.636979290523602515e+01
1.902408884673818967e+00 1.896421535119665464e-02 7.794154737226564933e+00 3.560487885133453290e+01
1.919862177193762509e+00 1.911151040111131252e-02 7.859433828009542822e+00 3.483190335715340069e+01
1.937315469713705829e+00 1.926043827534058492e-02 7.923436005671073978e+00 3.405119166235010653e+01
1.954768762233649149e+00 1.941108196889233806e-02 7.986172713117110966e+00 3.325902129080716918e+01
1.972222054753592246e+00 1.956352846679281984e-02 8.047665114707006850e+00 3.246189724985539726e+01
1.989675347273535566e+00 1.971786902095947966e-02 8.107938024281004630e+00 3.166303360822211488e+01
2.007128639793478886e+00 1.987419950332086974e-02 8.167010048603629002e+00 3.086038045471962832e+01
2.024581932313422428e+00 2.003262079441976706e-02 8.224898529849697937e+00 3.005447569536580943e+01
2.042035224833365525e+00 2.019323915569232533e-02 8.281621660059656165e+00 2.924693665477056825e+01
2.059488517353308623e+00 2.035616671641843692e-02 8.337198737877816512e+00 2.843945744817357735e+01
2.076941809873252165e+00 2.052152195326716749e-02 8.391650193123890489e+00 2.763369178017728700e+01
2.094395102393195263e+00 2.068943021725577411e-02 8.444996605129619027e+00 2.683073826043407450e+01
2.111848394913138804e+00 2.086002436150840439e-02 8.497257858423791888e+00 2.603121855034780907e+01
2.129301687433081902e+00 2.103344540078586414e-02 8.548453123593830583e+00 2.523571109246094579e+01
2.146754979953025444e+00 2.120984323902448329e-02 8.598601268512769735e+00 2.444496524556376116e+01
2.164208272472968542e+00 2.138937749289838985e-02 8.647721447982247511e+00 2.365997687690649798e+01
2.181661564992911639e+00 2.157221841781761448e-02 8.695833149255994599e+00 2.288171135582423688e+01
2.199114857512855181e+00 2.175854793011948451e-02 8.742956192039853747e+00 2.211108125627602305e+01
2.216568150032798723e+00 2.194856074663318474e-02 8.789110728491760227e+00 2.134894576802198785e+01
2.234021442552741821e+00 2.214246569101058562e-02 8.834317243221752491e+00 2.059610670926628728e+01
2.251474735072684918e+00 2.234048709686089693e-02 8.878596553291973947e+00 1.985331475066799101e+01
2.268928027592628460e+00 2.254286662061847149e-02 8.921969808216662301e+00 1.912124624750604340e+01
2.286381320112572002e+00 2.274986447270178902e-02 8.964452612031644563e+00 1.839802093561658936e+01
2.303834612632515100e+00 2.296176413243508976e-02 9.006064105218740679e+00 1.768552982239442173e+01
2.321287905152458197e+00 2.317885799618521134e-02 9.046824374331331242e+00 1.698578622823402284e+01
2.338741197672401295e+00 2.340140622527260225e-02 9.086752892094503764e+00 1.630300882417207831e+01
2.356194490192344837e+00 2.362951702999796164e-02 9.125868870278988965e+00 1.564885486569018980e+01
2.373647782712288379e+00 2.386326672700791324e-02 9.164192096200155291e+00 1.502467847360196629e+01
2.391101075232231477e+00 2.410270012603301856e-02 9.201741433819607963e+00 1.443070587446235642e+01
2.408554367752174574e+00 2.434775486742274397e-02 9.238533224393293608e+00 1.387045921545077576e+01
2.426007660272118116e+00 2.459819135910592050e-02 9.274583754054868123e+00 1.335083615319558703e+01
2.443460952792061214e+00 2.485390045150308660e-02 9.309909341978883646e+00 1.286141286340644818e+01
2.460914245312004311e+00 2.511476833389507043e-02 9.344531425367565092e+00 1.240195394199927925e+01
2.478367537831947853e+00 2.538064402062346903e-02 9.378480596808753234e+00 1.197520726910894773e+01
2.495820830351891395e+00 2.565133437016499721e-02 9.411787367212944844e+00 1.158062123248046049e+01
2.513274122871834493e+00 2.592672334515219029e-02 9.444482165813280261e+00 1.121270168168882364e+01
2.530727415391777591e+00 2.620668143616756290e-02 9.476595340165564707e+00 1.087032553054736361e+01
2.548180707911721132e+00 2.649107956103372366e-02 9.508157105659552855e+00 1.055190588862192236e+01
2.565634000431664674e+00 2.677973002515138604e-02 9.539196678078159408e+00 1.025782470191554197e+01
2.583087292951607772e+00 2.707248812358650086e-02 9.569741543491650404e+00 9.984573238120653116e+00
2.600540585471550870e+00 2.736921806648571348e-02 9.599817435491981854e+00 9.730163042926706751e+00
2.617993877991494411e+00 2.766978067922318957e-02 9.629448335192819286e+00 9.493170664034140671e+00
2.635447170511437509e+00 2.797403385263038875e-02 9.658656471229519980e+00 9.272256686239096268e+00
2.652900463031380607e+00 2.828183330340718754e-02 9.687462319759147178e+00 9.066149127790136930e+00
2.670353755551324149e+00 2.859303330275942898e-02 9.715884753002747232e+00 8.873685294650909938e+00
2.687807048071267690e+00 2.890748747612091260e-02 9.743941749485035331e+00 8.693977137159738078e+00
2.705260340591210788e+00 2.922504963995226426e-02 9.771650606066256017e+00 8.526244497725262050e+00
2.722713633111153886e+00 2.954557469353354809e-02 9.799027937979511549e+00 8.369743247458888646e+00
2.740166925631096984e+00 2.986891948540076544e-02 9.826089678830769003e+00 8.223762966280343534e+00
2.757620218151040525e+00 3.019494388263088691e-02 9.852851080598847844e+00 8.087618858255511967e+00
2.775073510670984067e+00 3.052351123927637272e-02 9.879326713635435908e+00 7.960663876934812144e+00
2.792526803190927165e+00 3.085447411510810686e-02 9.905530466665075195e+00 7.842634111869663194e+00
2.809980095710870263e+00 3.118765864263629492e-02 9.931475575976019599e+00 7.733649018737464687e+00
2.827433388230813804e+00 3.152293834085344998e-02 9.957174802508053091e+00 7.632185671527354387e+00
2.844886680750756902e+00 3.186018281302958194e-02 9.982640498276552421e+00 7.538000082107737754e+00
2.862339973270700000e+00 3.219922185805533521e-02 1.000788460649028799e+01 7.451652713852654486e+00
2.879793265790643542e+00 3.253991551096575841e-02 1.003291866155142031e+01 7.372154897854325206e+00
2.897246558310587083e+00 3.288213314508224572e-02 1.005775378905550355e+01 7.299027661176249460e+00
2.914699850830530625e+00 3.322572467051850692e-02 1.008240070579147485e+01 7.232427819016418624e+00
2.932153143350473723e+00 3.357053961853884161e-02 1.010686971974166859e+01 7.172111812002189168e+00
2.949606435870416821e+00 3.391643755120169607e-02 1.013117073008180924e+01 7.117639668271833919e+00
2.967059728390360362e+00 3.426327997711815787e-02 1.015531322766819855e+01 7.068761107877267413e+00
2.984513020910303460e+00 3.461092421187401957e-02 1.017930636523221999e+01 7.025386113445939884e+00
3.001966313430246558e+00 3.495922377394810460e-02 1.020315910021846761e+01 6.987469309199474843e+00
3.019419605950190100e+00 3.530803154850761100e-02 1.022688021214253951e+01 6.954918664088576286e+00
3.036872898470133197e+00 3.565720092719965040e-02 1.025047830259104131e+01 6.927632515515986356e+00
3.054326190990076295e+00 3.600658580966925593e-02 1.027396179522158448e+01 6.905522196586304062e+00
3.071779483510019837e+00 3.635604060355938916e-02 1.029733893576278270e+01 6.888511581768814729e+00
3.089232776029963379e+00 3.670542022451093317e-02 1.032061779201425900e+01 6.876536683862695121e+00
3.106686068549906921e+00 3.705458009616268561e-02 1.034380625384664221e+01 6.869545328453618538e+00
3.124139361069850018e+00 3.740337545360983978e-02 1.036691203320156340e+01 6.867510616660567280e+00
3.141592653589793116e+00 3.775165930275946324e-02 1.038994266409165945e+01 6.870457388426756573e+00
3.159045946109736214e+00 3.809928470587562593e-02 1.041290550300575646e+01 6.878377401358233278e+00
3.176499238629679756e+00 3.844610552710107931e-02 1.043580777703268758e+01 6.891273959778105862e+00
3.193952531149622853e+00 3.879197643245724941e-02 1.045865667684338263e+01 6.909190535051355830e+00
3.211405823669565951e+00 3.913675288984424377e-02 1.048145936730700534e+01 6.932186593340227354e+00
3.228859116189509493e+00 3.948029116904085145e-02 1.050422298749095695e+01 6.960334754367865528e+00
3.246312408709452590e+00 3.982244833864994477e-02 1.052695465066087621e+01 6.993721265499700301e+00
3.263765701229396576e+00 4.016308219966054777e-02 1.054966144428063224e+01 7.032447815460376006e+00
3.281218993749339674e+00 4.050205122106406708e-02 1.057235043001233521e+01 7.076632167267080220e+00
3.298672286269282772e+00 4.083921449042347135e-02 1.059502864371632924e+01 7.126408645836653122e+00
3.316125578789226314e+00 4.117442853587723051e-02 1.061770309545119595e+01 7.181996089902913383e+00
3.333578871309169411e+00 4.150754217432961468e-02 1.064038076947374911e+01 7.243746839277581451e+00
3.351032163829112509e+00 4.183839952400354723e-02 1.066306862423904356e+01 7.311977579990720955e+00
3.368485456349056051e+00 4.216686319829480306e-02 1.068577359428394402e+01 7.386514502351635869e+00
3.385938748868999149e+00 4.249282874477956773e-02 1.070850262592834135e+01 7.466859540022531050e+00
3.403392041388942246e+00 4.281627215427388083e-02 1.073126270919465775e+01 7.551380725173518549e+00
3.420845333908885788e+00 4.313726622084371881e-02 1.075406087893210483e+01 7.637926392368385109e+00
3.438298626428828886e+00 4.345590262626085332e-02 1.077690421481669425e+01 7.726061385007895410e+00
