# angles(rad), pulling distance(m),                                     elastic band force(n), cable force(n)
0.000000000000000000e+00 3.140409302744414321e-04 2.345786487670294129e-02 1.752228361101750009e-02
1.745329251994329547e-02 6.174073685130311183e-04 4.733915682043126488e-02 3.726583042483863628e-02
3.490658503988659095e-02 9.108829092163825327e-04 7.166767477307305068e-02 5.941102649175181161e-02
5.235987755982988295e-02 1.194818774151353751e-03 9.646809002424362733e-02 8.426017937665190860e-02
6.981317007977318190e-02 1.469464189615058433e-03 1.217669471277877113e-01 1.121651563023383924e-01
8.726646259971647390e-02 1.735068224832493318e-03 1.475927184289898553e-01 1.435104624351582758e-01
1.047197551196597659e-01 1.991886273636603397e-03 1.739760267418641315e-01 1.787282153241718241e-01
1.221730476396030718e-01 2.240184919594920276e-03 2.009498790224331921e-01 2.183013254715568119e-01
1.396263401595463638e-01 2.480204602816232437e-03 2.285498713118332970e-01 2.628107245743536713e-01
1.570796326794896558e-01 2.712176484644774569e-03 2.568148705364216022e-01 3.129203444553668723e-01
1.745329251994329478e-01 2.936583492400002271e-03 2.857841713203245204e-01 3.689264297524619263e-01
1.919862177193762398e-01 3.153944729925063205e-03 3.154905877419283411e-01 4.311759945458389920e-01
2.094395102393195318e-01 3.364753798747051848e-03 3.459450311457437643e-01 4.997680332602614239e-01
2.268928027592628516e-01 3.569454394161712500e-03 3.771603458801548459e-01 5.751414097325663333e-01
2.443460952792061436e-01 3.768449477076152125e-03 4.091518923124827234e-01 6.577751353995802130e-01
2.617993877991494078e-01 3.962105866246799606e-03 4.419355848824265132e-01 7.481436792533034952e-01
2.792526803190927276e-01 4.150758495598929135e-03 4.755191587571088174e-01 8.465099506849688149e-01
2.967059728390360474e-01 4.334714047751918667e-03 5.099165638419229651e-01 9.534806859941855617e-01
3.141592653589793116e-01 4.514254099640136082e-03 5.451428091997830849e-01 1.069584983962287073e+00
3.316125578789225758e-01 4.689637833943666699e-03 5.812129246302881747e-01 1.195345586885125932e+00
3.490658503988658956e-01 4.861104387621371405e-03 6.181392463153538852e-01 1.331198893663468441e+00
3.665191429188092154e-01 5.028874884763729312e-03 6.559312171705796723e-01 1.477550216788662274e+00
3.839724354387524796e-01 5.193154293549310900e-03 6.946034919190590129e-01 1.635134754825376069e+00
4.014257279586957439e-01 5.354133000765131517e-03 7.341700606438961163e-01 1.804498909364439685e+00
4.188790204786390636e-01 5.511988136526316077e-03 7.746447788308096216e-01 1.986221668807472751e+00
4.363323129985823834e-01 5.666884911269395517e-03 8.160411528728612751e-01 2.180881096721561718e+00
4.537856055185257032e-01 5.818977653499773743e-03 8.583724110392697559e-01 2.389067591377040500e+00
4.712388980384689674e-01 5.968410764424593451e-03 9.016515342061228733e-01 2.611381611544011605e+00
4.886921905584122872e-01 6.115319678770392460e-03 9.458913325574327402e-01 2.848434487514742930e+00
5.061454830783556069e-01 6.259831503213026359e-03 9.911045591184707293e-01 3.100855943790907343e+00
5.235987755982988157e-01 6.402065882718044679e-03 1.037304037706221482e+00 3.369291295520117302e+00
5.410520681182421354e-01 6.542135445104766550e-03 1.084502926385182642e+00 3.654422275778765883e+00
5.585053606381854552e-01 6.680146555206192306e-03 1.132714601948478395e+00 3.956932804526673841e+00
5.759586531581287749e-01 6.816199636855709877e-03 1.181954056925532903e+00 4.277651991805360154e+00
5.934119456780720947e-01 6.950389813990063247e-03 1.232235265407133795e+00 4.617199231824789862e+00
6.108652381980153034e-01 7.082807176569270481e-03 1.283568642340676247e+00 4.975926997332891233e+00
6.283185307179586232e-01 7.213537268675056929e-03 1.335967197322314837e+00 5.354754174418597579e+00
6.457718232379019430e-01 7.342661398092349342e-03 1.389445484322444635e+00 5.754552980682437813e+00
6.632251157578451517e-01 7.470256904993961486e-03 1.444010641946248175e+00 6.175191446905942350e+00
6.806784082777884715e-01 7.596397578250254495e-03 1.499648361346755054e+00 6.614600396060430931e+00
6.981317007977317912e-01 7.721153751152430751e-03 1.556331964542400748e+00 7.071273626515849564e+00
7.155849933176750000e-01 7.844592695987426603e-03 1.614032660627531035e+00 7.544686010305261981e+00
7.330382858376184307e-01 7.966778786296705578e-03 1.672719964403555304e+00 8.034255326010439902e+00
7.504915783575616395e-01 8.087773642067775173e-03 1.732361696378946547e+00 8.539292957657407257e+00
7.679448708775049592e-01 8.207636462321242846e-03 1.792924997054816671e+00 9.059144066216228808e+00
7.853981633974482790e-01 8.326424076366882240e-03 1.854379543729788749e+00 9.593597374509950981e+00
8.028514559173914877e-01 8.444191128322479575e-03 1.916695203435854422e+00 1.014206639923280129e+01
8.203047484373349185e-01 8.560990317716109591e-03 1.979841192600946265e+00 1.070375840325816696e+01
8.377580409572781273e-01 8.676872421842020053e-03 2.043786077048937333e+00 1.127781252498730424e+01
8.552113334772214470e-01 8.791886468134578470e-03 2.108497771999641390e+00 1.186328705267983707e+01
8.726646259971647668e-01 8.906079925154138099e-03 2.173943999007742711e+00 1.245924557985749814e+01
8.901179185171079755e-01 9.019498715482063278e-03 2.240094126901590599e+00 1.306507612718863776e+01
9.075712110370514063e-01 9.132187345858834571e-03 2.306919579988378377e+00 1.368025732960565932e+01
9.250245035569946150e-01 9.244189085111095133e-03 2.374391668503104125e+00 1.430381044932168422e+01
9.424777960769379348e-01 9.355545977194052940e-03 2.442478825764533124e+00 1.493409494525510972e+01
9.599310885968812546e-01 9.466298913997091280e-03 2.511149961789651552e+00 1.557010816897789240e+01
9.773843811168245743e-01 9.576487813811634248e-03 2.580379060998158725e+00 1.621191592892365918e+01
9.948376736367677831e-01 9.686151648176074061e-03 2.650135281896436101e+00 1.685728236712401085e+01
1.012290966156711214e+00 9.795328465070722232e-03 2.720379851864928256e+00 1.750297529095371019e+01
1.029744258676654312e+00 9.904055544005790218e-03 2.791083989032178359e+00 1.815014135749007096e+01
1.047197551196597631e+00 1.001236945961738248e-02 2.862223284698543591e+00 1.879874320521132347e+01
1.064650843716540951e+00 1.012030608401108533e-02 2.933767205223940966e+00 1.944596738591371121e+01
1.082104136236484271e+00 1.022790067452032312e-02 3.005678074575798053e+00 2.008845633517280405e+01
1.099557428756427591e+00 1.033518799017042571e-02 3.077926270712206147e+00 2.072701880481863768e+01
1.117010721276370910e+00 1.044220229971489985e-02 3.150483019197399148e+00 2.136058299154621665e+01
1.134464013796314230e+00 1.054897740291250129e-02 3.223318025633790995e+00 2.198737178545282234e+01
1.151917306316257550e+00 1.065554675724920616e-02 3.296400980997218788e+00 2.260600406689386688e+01
1.169370598836200648e+00 1.076194352466088543e-02 3.369701243931167767e+00 2.321498981574310250e+01
1.186823891356144189e+00 1.086820057232014587e-02 3.443188107134734111e+00 2.381292337657993485e+01
1.204277183876087287e+00 1.097435053459466271e-02 3.516830861647055606e+00 2.439841769664061744e+01
1.221730476396030607e+00 1.108042592210673090e-02 3.590598885154643760e+00 2.497010750361577180e+01
1.239183768915973927e+00 1.118645913282156207e-02 3.664461703759055222e+00 2.552666926549158077e+01
1.256637061435917246e+00 1.129248246102899748e-02 3.738389012320084692e+00 2.606681404060715934e+01
1.274090353955860566e+00 1.139852820005768895e-02 3.812350773965943684e+00 2.658929833835050971e+01
1.291543646475803886e+00 1.150462870774471291e-02 3.886316990523514647e+00 2.709281702782883272e+01
1.308996938995747206e+00 1.161081640749582478e-02 3.960258254286160184e+00 2.757631070592040246e+01
1.326450231515690303e+00 1.171712382342447734e-02 4.034139145405127636e+00 2.803621857956477470e+01
1.343903524035633845e+00 1.182358370046519315e-02 4.107928493063109698e+00 2.847282677330445466e+01
1.361356816555576943e+00 1.193022903001631461e-02 4.181596762070550533e+00 2.888555893122224916e+01
1.378810109075520263e+00 1.203709305301238486e-02 4.255114609065569375e+00 2.927335655209783738e+01
1.396263401595463582e+00 1.214420934640957420e-02 4.328452761934864057e+00 2.963514889048867929e+01
1.413716694115406902e+00 1.225161191949649363e-02 4.401582238513861434e+00 2.996999010083665738e+01
1.431169986635350000e+00 1.235933521893878284e-02 4.474470538787307383e+00 3.027539574858031557e+01
1.448623279155293542e+00 1.246741415560726797e-02 4.547082607081335937e+00 3.054925251686491094e+01
1.466076571675236861e+00 1.257588424220186171e-02 4.619389581740556139e+00 3.079319800641034277e+01
1.483529864195180181e+00 1.268478163726133659e-02 4.691362093006507195e+00 3.100616969828843850e+01
1.500983156715123279e+00 1.279414314882156012e-02 4.762970873453757470e+00 3.118743794666601943e+01
1.518436449235066599e+00 1.290400633962427747e-02 4.834186315975322223e+00 3.133612952695696308e+01
1.535889741755009918e+00 1.301440964588315881e-02 4.904978901583061379e+00 3.145160689121480146e+01
1.553343034274953460e+00 1.312539238367795534e-02 4.975313650537966481e+00 3.153079871119393474e+01
1.570796326794896558e+00 1.323699480650873325e-02 5.045159803318780334e+00 3.157503157082387801e+01
1.588249619314839878e+00 1.334925828187209611e-02 5.114506973236430554e+00 3.159323038682466844e+01
1.605702911834782975e+00 1.346222532501090488e-02 5.183363864953370204e+00 3.159419902139379133e+01
1.623156204354726295e+00 1.357593962983171150e-02 5.251741655587367497e+00 3.157935951466044244e+01
1.640609496874669837e+00 1.369044626903017856e-02 5.319651447882376871e+00 3.154895012518837660e+01
1.658062789394613157e+00 1.380579177377547727e-02 5.387104321618632952e+00 3.150323616100837754e+01
1.675516081914556255e+00 1.392202415706816215e-02 5.454111332214570673e+00 3.144250212170617687e+01
1.692969374434499574e+00 1.403919313261966367e-02 5.520683526937607333e+00 3.136700794981405238e+01
1.710422666954442894e+00 1.415735023536150543e-02 5.586831953914328075e+00 3.127701483525296311e+01
1.727875959474386436e+00 1.427654885269551838e-02 5.652567671005550132e+00 3.117281035391496502e+01
1.745329251994329534e+00 1.439684448595250112e-02 5.717901752156954842e+00 3.105464820099754775e+01
1.762782544514272853e+00 1.451829488517789209e-02 5.782845294377518819e+00 3.092278493324914379e+01
1.780235837034215951e+00 1.464096011541336957e-02 5.847409417015151156e+00 3.077749562674533479e+01
1.797689129554159271e+00 1.476490288862940953e-02 5.911605278858671042e+00 3.061901762465351240e+01
1.815142422074102813e+00 1.489018867047994278e-02 5.975444046570292933e+00 3.044758781310759232e+01
1.832595714594046132e+00 1.501688586184357806e-02 6.038936540935183395e+00 3.026327104558901837e+01
1.850049007113989230e+00 1.514506616291490596e-02 6.102093034383043069e+00 3.006599263094181040e+01
1.867502299633932550e+00 1.527480465704543662e-02 6.164924657062938351e+00 2.985638321906542103e+01
1.884955592153875870e+00 1.540618022060482629e-02 6.227442735109995908e+00 2.963471595470577924e+01
1.902408884673818967e+00 1.553927576604242564e-02 6.289658493867966271e+00 2.940112490150748670e+01
1.919862177193762509e+00 1.567417853492715507e-02 6.351583389694669179e+00 2.915589820676976629e+01
1.937315469713705829e+00 1.581098056895326176e-02 6.413228604721378900e+00 2.889904811488702308e+01
1.954768762233649149e+00 1.594977894383885555e-02 6.474604334018166263e+00 2.863027490315038293e+01
1.972222054753592246e+00 1.609067639231294769e-02 6.535721454324364466e+00 2.835001476163598966e+01
1.989675347273535566e+00 1.623378158920835146e-02 6.596591272398767636e+00 2.805861138331659888e+01
2.007128639793478886e+00 1.637920987615573351e-02 6.657225511481847491e+00 2.775634725307652673e+01
2.024581932313422428e+00 1.652708366032881390e-02 6.717635410707164745e+00 2.744311173630773126e+01
2.042035224833365525e+00 1.667753325244785909e-02 6.777830687525854714e+00 2.711827853564334134e+01
2.059488517353308623e+00 1.683069742103551411e-02 6.837822506417961854e+00 2.678259629546690590e+01
2.076941809873252165e+00 1.698672435329247679e-02 6.897622938342458099e+00 2.643651483744250541e+01
2.094395102393195263e+00 1.714577246558775594e-02 6.957243174153643572e+00 2.607968574117498406e+01
2.111848394913138804e+00 1.730801144768758654e-02 7.016692929568733916e+00 2.571149504802552954e+01
2.129301687433081902e+00 1.747362346185325419e-02 7.075983620669756391e+00 2.533270072238524406e+01
2.146754979953025444e+00 1.764280434749234544e-02 7.135126948025667382e+00 2.494342946716237108e+01
2.164208272472968542e+00 1.781576514909929965e-02 7.194133651628158432e+00 2.454325535695578964e+01
2.181661564992911639e+00 1.799273378345744856e-02 7.253014434707403701e+00 2.413213907365978628e+01
2.199114857512855181e+00 1.817395691506892147e-02 7.311780736999969221e+00 2.371034609470846277e+01
2.216568150032798723e+00 1.835970211043940967e-02 7.370443917452298876e+00 2.327778549969333000e+01
2.234021442552741821e+00 1.855026030690399078e-02 7.429014177812113040e+00 2.283393224138098887e+01
2.251474735072684918e+00 1.874594896837600971e-02 7.487502950902921839e+00 2.237916381142704481e+01
2.268928027592628460e+00 1.894711422243990084e-02 7.545921829417478577e+00 2.191354032208175084e+01
2.286381320112572002e+00 1.915413658710827735e-02 7.604280924383568951e+00 2.143628072869323731e+01
2.303834612632515100e+00 1.936735027734881251e-02 7.662591516154046545e+00 2.095598295298569269e+01
2.321287905152458197e+00 1.958673545041619488e-02 7.720865258528066377e+00 2.050839200704735532e+01
2.338741197672401295e+00 1.981217839637788511e-02 7.779112562503311068e+00 2.009875856407483496e+01
2.356194490192344837e+00 2.004356593962659458e-02 7.837344391679993194e+00 1.972374542758245397e+01
2.373647782712288379e+00 2.028076308814275031e-02 7.895572234706718540e+00 1.938227940616929601e+01
2.391101075232231477e+00 2.052367176473289881e-02 7.953807124338480250e+00 1.906844525029834614e+01
2.408554367752174574e+00 2.077219175654763592e-02 8.012059821093249212e+00 1.878014270526546525e+01
2.426007660272118116e+00 2.102622336524286387e-02 8.070341231342720079e+00 1.851544658450002245e+01
2.443460952792061214e+00 2.128566601040089018e-02 8.128662982101616308e+00 1.827293489689950690e+01
2.460914245312004311e+00 2.155041851027830746e-02 8.187036262409749909e+00 1.805097828574892915e+01
2.478367537831947853e+00 2.182037879969741384e-02 8.245471276172686714e+00 1.784796677103233264e+01
2.495820830351891395e+00 2.209544414048064676e-02 8.303978959752628342e+00 1.766295135724038445e+01
2.513274122871834493e+00 2.237551036232544519e-02 8.362570900682111841e+00 1.749512158245630644e+01
2.530727415391777591e+00 2.266047325880985244e-02 8.421258509737507225e+00 1.734343429517106472e+01
2.548180707911721132e+00 2.295020639823261432e-02 8.480052639026041561e+00 1.720815617522330854e+01
2.565634000431664674e+00 2.324460613556515037e-02 8.538963699849364986e+00 1.708695172243923821e+01
2.583087292951607772e+00 2.354356975277543951e-02 8.598002700447191060e+00 1.697923952447871798e+01
2.600540585471550870e+00 2.384699431011022899e-02 8.657181145481466444e+00 1.688454365954156700e+01
2.617993877991494411e+00 2.415477637151692072e-02 8.716510531453533162e+00 1.680231834456605000e+01
2.635447170511437509e+00 2.446681232606227538e-02 8.776001801383101153e+00 1.673190170758233108e+01
2.652900463031380607e+00 2.478299864912490019e-02 8.835665295804988162e+00 1.667265876599947205e+01
2.670353755551324149e+00 2.510323185100057572e-02 8.895511884940924929e+00 1.662432383068701469e+01
2.687807048071267690e+00 2.542740967181494199e-02 8.955552929610940183e+00 1.658659905050580008e+01
2.705260340591210788e+00 2.575542938725382258e-02 9.015799641481073934e+00 1.655913525052624991e+01
2.722713633111153886e+00 2.608717132174376632e-02 9.076263250480142375e+00 1.654248604998944217e+01
2.740166925631096984e+00 2.642252423940258735e-02 9.136955147586574455e+00 1.653598679131176041e+01
2.757620218151040525e+00 2.676138561532789145e-02 9.197886210777445726e+00 1.653882754860982729e+01
2.775073510670984067e+00 2.710365511351267923e-02 9.259066755621564226e+00 1.655054721093361181e+01
2.792526803190927165e+00 2.744923749694238094e-02 9.320507656275987429e+00 1.657087896885042611e+01
2.809980095710870263e+00 2.779803469747342548e-02 9.382220264665386722e+00 1.659994071439912133e+01
2.827433388230813804e+00 2.814993163643514026e-02 9.444215643902445834e+00 1.663832973846922769e+01
2.844886680750756902e+00 2.850480513297251953e-02 9.506504921786827822e+00 1.668632153599136814e+01
2.862339973270700000e+00 2.886257114514548597e-02 9.569099782298057022e+00 1.674212881354986138e+01
2.879793265790643542e+00 2.922313763856441635e-02 9.632010840634478654e+00 1.680577665845822466e+01
2.897246558310587083e+00 2.958636436982229126e-02 9.695245567898638228e+00 1.687860932266826453e+01
2.914699850830530625e+00 2.995215296323349916e-02 9.758801420965928841e+00 1.695594013579671255e+01
2.932153143350473723e+00 3.032042170265666220e-02 9.822663232750860729e+00 1.703356824636445666e+01
2.949606435870416821e+00 3.069106350797980859e-02 9.886813827228069229e+00 1.711207358137032131e+01
2.967059728390360362e+00 3.106396670798822895e-02 9.951238978124832713e+00 1.719239933475925142e+01
2.984513020910303460e+00 3.143902281486712219e-02 1.001592477024393091e+01 1.727442949696408192e+01
3.001966313430246558e+00 3.181612175555401101e-02 1.008085556196892263e+01 1.735772398913784187e+01
3.019419605950190100e+00 3.219515207793013228e-02 1.014601444341771064e+01 1.744195419912357181e+01
3.036872898470133197e+00 3.257600693576114675e-02 1.021138494172784306e+01 1.752697407823296416e+01
3.054326190990076295e+00 3.295858555505521564e-02 1.027695137743187637e+01 1.761266933748667540e+01
3.071779483510019837e+00 3.334278896669670700e-02 1.034269879656084612e+01 1.769910761064987170e+01
3.089232776029963379e+00 3.372851603926513980e-02 1.040861238317416237e+01 1.778638375767828350e+01
3.106686068549906921e+00 3.411566334883543022e-02 1.047467715834431701e+01 1.787451893218783638e+01
3.124139361069850018e+00 3.450412603404198753e-02 1.054087797771265400e+01 1.796349522258952902e+01
3.141592653589793116e+00 3.489379894191960152e-02 1.060719953148937300e+01 1.805324260235762068e+01
3.159045946109736214e+00 3.528457670811564056e-02 1.067362634445353642e+01 1.814368784934165291e+01
3.176499238629679756e+00 3.567635375689001687e-02 1.074014277595306055e+01 1.823475809740949316e+01
3.193952531149622853e+00 3.606902430111524199e-02 1.080673301990471735e+01 1.832638069493495792e+01
3.211405823669565951e+00 3.646248234227639218e-02 1.087338128067629128e+01 1.841853197165809064e+01
3.228859116189509493e+00 3.685662167047111526e-02 1.094007228467063975e+01 1.851133221790506411e+01
3.246312408709452590e+00 3.725133575172763500e-02 1.100679068842969599e+01 1.860474556429139170e+01
3.263765701229396576e+00 3.764651752624981890e-02 1.107352088668991996e+01 1.869869239544267359e+01
3.281218993749339674e+00 3.804206029162719022e-02 1.114024701238230719e+01 1.879305064986529317e+01
3.298672286269282772e+00 3.843785795180794385e-02 1.120695293663238701e+01 1.888768501874945116e+01
3.316125578789226314e+00 3.883380501709895322e-02 1.127362245151626929e+01 1.898251068673113195e+01
3.333578871309169411e+00 3.922979660416574949e-02 1.134024007920894483e+01 1.907767528947193014e+01
3.351032163829112509e+00 3.962572843603254236e-02 1.140679126466301163e+01 1.917338844192274294e+01
3.368485456349056051e+00 4.002149684208221314e-02 1.147326184144974803e+01 1.926971230065027640e+01
3.385938748868999149e+00 4.041699874772452378e-02 1.153963742631918699e+01 1.936653584789378257e+01
3.403392041388942246e+00 4.081213121549964740e-02 1.160590177740623652e+01 1.946328415860674710e+01
3.420845333908885788e+00 4.120679081354452350e-02 1.167203723610376720e+01 1.955952776439509222e+01
3.438298626428828886e+00 4.160087356962620386e-02 1.173802856086521373e+01 1.965597435729085518e+01
