# angles(rad), pulling distance(m),                                     elastic band force(n), cable force(n)
0.000000000000000000e+00 3.152007981751811863e-04 2.454114218418143589e-02 1.910742812806848906e-02
1.745329251994329547e-02 6.219149609088007666e-04 4.949640924894207344e-02 4.027189682228017598e-02
3.490658503988659095e-02 9.206705126027709459e-04 7.488830694410654465e-02 6.364923489143008151e-02
5.235987755982988295e-02 1.211957105958659650e-03 1.007403641722175863e-01 8.940835998514265470e-02
6.981317007977318190e-02 1.496213336810082789e-03 1.270777447583943398e-01 1.177421834416793461e-01
8.726646259971647390e-02 1.773740385721995138e-03 1.539273537457810648e-01 1.489184307166098176e-01
1.047197551196597659e-01 2.044705815838013859e-03 1.813180197495830037e-01 1.832861600575810268e-01
1.221730476396030718e-01 2.309251361910027132e-03 2.092806900523155600e-01 2.212113196972233242e-01
1.396263401595463638e-01 2.567528462141654717e-03 2.378486532701843403e-01 2.630837798607971179e-01
1.570796326794896558e-01 2.819687386065646440e-03 2.670577932232212626e-01 3.093496885383902884e-01
1.745329251994329478e-01 3.065877149853425947e-03 2.969460861260332374e-01 3.605028682723431799e-01
1.919862177193762398e-01 3.306234254007609126e-03 3.275480569512662643e-01 4.170301567726708569e-01
2.094395102393195318e-01 3.540894106989015463e-03 3.588761049915725199e-01 4.791142462100166921e-01
2.268928027592628516e-01 3.770006277720907694e-03 3.909434762668287933e-01 5.471786837443052276e-01
2.443460952792061436e-01 3.993727379194860275e-03 4.237634291139731890e-01 6.216622245391574264e-01
2.617993877991494078e-01 4.212207335320691283e-03 4.573491717153018166e-01 7.030581584021520225e-01
2.792526803190927276e-01 4.425584665856761857e-03 4.917138353026615505e-01 7.919107661987514479e-01
2.967059728390360474e-01 4.633996916208917363e-03 5.268704808665392036e-01 8.887672736413666508e-01
3.141592653589793116e-01 4.837599920184527252e-03 5.628321350100500275e-01 9.941098208212022502e-01
3.316125578789225758e-01 5.036545463763419939e-03 5.996118622936326137e-01 1.108522481802435733e+00
3.490658503988658956e-01 5.230965745849279654e-03 6.372228926758453094e-01 1.232721674896476882e+00
3.665191429188092154e-01 5.421012630311354552e-03 6.756787709276783627e-01 1.367232124098736845e+00
3.839724354387524796e-01 5.606835968140852326e-03 7.149931280301908831e-01 1.512699937992353139e+00
4.014257279586957439e-01 5.788574469881504689e-03 7.551765818572653277e-01 1.669739929497915831e+00
4.188790204786390636e-01 5.966380047828656261e-03 7.962438814414121158e-01 1.839064128287219324e+00
4.363323129985823834e-01 6.140401365508982648e-03 8.382082185414788666e-01 2.021295592505300220e+00
4.537856055185257032e-01 6.310774753665910827e-03 8.810822167728039611e-01 2.217219356392378771e+00
4.712388980384689674e-01 6.477654032455548890e-03 9.248784862851682220e-01 2.427277235695230573e+00
4.886921905584122872e-01 6.641210884373551643e-03 9.696116598156029331e-01 2.651910092853157597e+00
5.061454830783556069e-01 6.801618679835775075e-03 1.015294816600031069e+00 2.891497396090049410e+00
5.235987755982988157e-01 6.959045179022055501e-03 1.061940320275795324e+00 3.146531325342700303e+00
5.410520681182421354e-01 7.113645804042473264e-03 1.109560346891917515e+00 3.417663624853323423e+00
5.585053606381854552e-01 7.265565147791152451e-03 1.158167494939774889e+00 3.705599135807434497e+00
5.759586531581287749e-01 7.414939219897332713e-03 1.207776715021887437e+00 4.011195518789941517e+00
5.934119456780720947e-01 7.561895994417090240e-03 1.258400189784492973e+00 4.334920282307135331e+00
6.108652381980153034e-01 7.706556080623145136e-03 1.310053047832796969e+00 4.677723198579369246e+00
6.283185307179586232e-01 7.849032936762152801e-03 1.362744925707601418e+00 5.039807246296688525e+00
6.457718232379019430e-01 7.989433413142017770e-03 1.416490241437138753e+00 5.422325993244633935e+00
6.632251157578451517e-01 8.127857983500116901e-03 1.471304310631640133e+00 5.826146043328639834e+00
6.806784082777884715e-01 8.264402510801769491e-03 1.527194015184483611e+00 6.251032098486610344e+00
6.981317007977317912e-01 8.399159654694197952e-03 1.584161895782001173e+00 6.696961891540714085e+00
7.155849933176750000e-01 8.532217217966394859e-03 1.642178298906794121e+00 7.160305348239547563e+00
7.330382858376184307e-01 8.663650199693014031e-03 1.701219933791827454e+00 7.642130983454334725e+00
7.504915783575616395e-01 8.793518471991416605e-03 1.761260020136922622e+00 8.142574149458809529e+00
7.679448708775049592e-01 8.921872488027596595e-03 1.822267886375806389e+00 8.661409973497937287e+00
7.853981633974482790e-01 9.048769325409175210e-03 1.884215297005053413e+00 9.198200768904662539e+00
8.028514559173914877e-01 9.174275478139842788e-03 1.947074844337575827e+00 9.751891893320271620e+00
8.203047484373349185e-01 9.298463257569871548e-03 2.010819097814959378e+00 1.032131847888460463e+01
8.377580409572781273e-01 9.421401063158179462e-03 2.075420604007462533e+00 1.090594519401338580e+01
8.552113334772214470e-01 9.543151754657952165e-03 2.140851886614016930e+00 1.150537077746925441e+01
8.726646259971647668e-01 9.663773226428135424e-03 2.207085447580669157e+00 1.211916306488649830e+01
8.901179185171079755e-01 9.783321145439517405e-03 2.274093951534901237e+00 1.274665713998864902e+01
9.075712110370514063e-01 9.901849766322336210e-03 2.341850614008193165e+00 1.338714484606183674e+01
9.250245035569946150e-01 1.001941192083470600e-02 2.410329223518575592e+00 1.403989186600217032e+01
9.424777960769379348e-01 1.013605881746562284e-02 2.479503191579773613e+00 1.470395523034590646e+01
9.599310885968812546e-01 1.025183986323688172e-02 2.549344380014986200e+00 1.537809924282741747e+01
9.773843811168245743e-01 1.036680265749352278e-02 2.619824010810790416e+00 1.606121617222808595e+01
9.948376736367677831e-01 1.048099307808596399e-02 2.690914701093544359e+00 1.675262973901435259e+01
1.012290966156711214e+00 1.059445568409179972e-02 2.762590233266342565e+00 1.745157564374614267e+01
1.029744258676654312e+00 1.070723383335365000e-02 2.834824646444287222e+00 1.815705401609618619e+01
1.047197551196597631e+00 1.081936968269504168e-02 2.907590008618651467e+00 1.886745775542137338e+01
1.064650843716540951e+00 1.093090425931236148e-02 2.980856523626573829e+00 1.958109994661824160e+01
1.082104136236484271e+00 1.104187763712278364e-02 3.054596283537615253e+00 2.029722812961636436e+01
1.099557428756427591e+00 1.115232896351558978e-02 3.128784656323269076e+00 2.101554141811215715e+01
1.117010721276370910e+00 1.126229645982022506e-02 3.203396360145458033e+00 2.173468238161361299e+01
1.134464013796314230e+00 1.137181750633642005e-02 3.278401278271962038e+00 2.245196035688480052e+01
1.151917306316257550e+00 1.148092882550886228e-02 3.353769306786139826e+00 2.316597239048633128e+01
1.169370598836200648e+00 1.158966650572920698e-02 3.429473893363678361e+00 2.387644308297324969e+01
1.186823891356144189e+00 1.169806600140966754e-02 3.505488851131245642e+00 2.458217958494188693e+01
1.204277183876087287e+00 1.180616218938840278e-02 3.581787174170473431e+00 2.528159040413000014e+01
1.221730476396030607e+00 1.191398952592696500e-02 3.658341715001717454e+00 2.597325309019248962e+01
1.239183768915973927e+00 1.202158207380828181e-02 3.735125096915873577e+00 2.665570640914655698e+01
1.256637061435917246e+00 1.212897350233665614e-02 3.812109850404908684e+00 2.732753825218054189e+01
1.274090353955860566e+00 1.223619711719029467e-02 3.889268465089142701e+00 2.798735775798878223e+01
1.291543646475803886e+00 1.234328600794249928e-02 3.966573445625034555e+00 2.863377151956498423e+01
1.308996938995747206e+00 1.245027309354959297e-02 4.043997349350089365e+00 2.926540709691980524e+01
1.326450231515690303e+00 1.255719112236380712e-02 4.121512813274154752e+00 2.988092666252474672e+01
1.343903524035633845e+00 1.266407268308370956e-02 4.199092569849915968e+00 3.047902530743896676e+01
1.361356816555576943e+00 1.277095032754356659e-02 4.276709454764922924e+00 3.105840021484447533e+01
1.378810109075520263e+00 1.287785664784233709e-02 4.354336402338732981e+00 3.161776054759283738e+01
1.396263401595463582e+00 1.298482427753843566e-02 4.431946450421887285e+00 3.215585669201293229e+01
1.413716694115406902e+00 1.309188589410334620e-02 4.509512685378108898e+00 3.267145889582450025e+01
1.431169986635350000e+00 1.319907430927349731e-02 4.587008334479798499e+00 3.316339622627106110e+01
1.448623279155293542e+00 1.330642258358955693e-02 4.664404763336758464e+00 3.362962970068437585e+01
1.466076571675236861e+00 1.341396403377301434e-02 4.741671624427873155e+00 3.406817391055702160e+01
1.483529864195180181e+00 1.352173223292940478e-02 4.818782203355452154e+00 3.447947431017454534e+01
1.500983156715123279e+00 1.362976107161826926e-02 4.895709598891437864e+00 3.486237502079780626e+01
1.518436449235066599e+00 1.373808490422479857e-02 4.972426994058507077e+00 3.521585577831488933e+01
1.535889741755009918e+00 1.384673857043402546e-02 5.048907500528073911e+00 3.553888388955215305e+01
1.553343034274953460e+00 1.395575739523104673e-02 5.125124183322291138e+00 3.583050586800272441e+01
1.570796326794896558e+00 1.406517723387065537e-02 5.201049982795294291e+00 3.608978800850109536e+01
1.588249619314839878e+00 1.417503464258344954e-02 5.276657924009149347e+00 3.631591594947618518e+01
1.605702911834782975e+00 1.428536691907506505e-02 5.351923221756638149e+00 3.650918005284022172e+01
1.623156204354726295e+00 1.439621210252617009e-02 5.426841232480925648e+00 3.667891892058189995e+01
1.640609496874669837e+00 1.450760901981410118e-02 5.501420700389400231e+00 3.683163219994744964e+01
1.658062789394613157e+00 1.461959748306777655e-02 5.575670901611600172e+00 3.696761919624284332e+01
1.675516081914556255e+00 1.473221834243756447e-02 5.649601020652996297e+00 3.708688411103672422e+01
1.692969374434499574e+00 1.484551348613737630e-02 5.723220056308742087e+00 3.718940879826681822e+01
1.710422666954442894e+00 1.495952591595170640e-02 5.796537346325729700e+00 3.727544535336684106e+01
1.727875959474386436e+00 1.507429997881476642e-02 5.869562227842171964e+00 3.734503036221364880e+01
1.745329251994329534e+00 1.518988141105805101e-02 5.942303886064577156e+00 3.739813826012625952e+01
1.762782544514272853e+00 1.530631734216798302e-02 6.014771422793695699e+00 3.743480769583296563e+01
1.780235837034215951e+00 1.542365646325788951e-02 6.086974056836525371e+00 3.745516040785909695e+01
1.797689129554159271e+00 1.554194925983465835e-02 6.158921027408589488e+00 3.745923020993589603e+01
1.815142422074102813e+00 1.566124802883804568e-02 6.230621591648859869e+00 3.744708243185212382e+01
1.832595714594046132e+00 1.578160693223533417e-02 6.302085029622387147e+00 3.741880740901279268e+01
1.850049007113989230e+00 1.590308232749224060e-02 6.373320644776684141e+00 3.737443420094064805e+01
1.867502299633932550e+00 1.602573289341597054e-02 6.444337766739898221e+00 3.731399995637283240e+01
1.884955592153875870e+00 1.614961964672375141e-02 6.515145750107333100e+00 3.723758348593720058e+01
1.902408884673818967e+00 1.627480625359925201e-02 6.585753984300102282e+00 3.714522433872536311e+01
1.919862177193762509e+00 1.640135930943123141e-02 6.656171867136167819e+00 3.703691922690524763e+01
1.937315469713705829e+00 1.652934835873474950e-02 6.726408882587188387e+00 3.691275833261243378e+01
1.954768762233649149e+00 1.665884621996684828e-02 6.796474432320742665e+00 3.677270904861528322e+01
1.972222054753592246e+00 1.678992937407965472e-02 6.866377260515027281e+00 3.661639004702879419e+01
1.989675347273535566e+00 1.692267800914342216e-02 6.936126006097312668e+00 3.644377118405495963e+01
2.007128639793478886e+00 1.705717646506843890e-02 7.005730078064735800e+00 3.625523707200186863e+01
2.024581932313422428e+00 1.719351364937867985e-02 7.075199090839573657e+00 3.605084691404571373e+01
2.042035224833365525e+00 1.733178315149093082e-02 7.144542565644916188e+00 3.583056276533699247e+01
2.059488517353308623e+00 1.747208392774757604e-02 7.213770203659351843e+00 3.559440551239209327e+01
2.076941809873252165e+00 1.761452059870616954e-02 7.282891309223169962e+00 3.534212752985320805e+01
2.094395102393195263e+00 1.775920389679310971e-02 7.351913749602248416e+00 3.507295141621123236e+01
2.111848394913138804e+00 1.790625142188585761e-02 7.420846993691684546e+00 3.478760059673619054e+01
2.129301687433081902e+00 1.805578793958100697e-02 7.489700876783021322e+00 3.448622426867079582e+01
2.146754979953025444e+00 1.820794639116106797e-02 7.558485226849541050e+00 3.416868983729596465e+01
2.164208272472968542e+00 1.836286832329959637e-02 7.627209480242634676e+00 3.383473661648428532e+01
2.181661564992911639e+00 1.852070500497466840e-02 7.695881348954851653e+00 3.348337965620660839e+01
2.199114857512855181e+00 1.868161810510333282e-02 7.764510265971343195e+00 3.311538527882237304e+01
2.216568150032798723e+00 1.884578100780968588e-02 7.833106605461484406e+00 3.273105135889574058e+01
2.234021442552741821e+00 1.901337973033885229e-02 7.901679807207226069e+00 3.232980987999948752e+01
2.251474735072684918e+00 1.918461446742758536e-02 7.970238050363242621e+00 3.191090356771444903e+01
2.268928027592628460e+00 1.935970093581509607e-02 8.038790444025165627e+00 3.147463834068816269e+01
2.286381320112572002e+00 1.953887246671705963e-02 8.107347243260477399e+00 3.102132210899451437e+01
2.303834612632515100e+00 1.972238115232684622e-02 8.175918047415274614e+00 3.055055804863162194e+01
2.321287905152458197e+00 1.991050054176759718e-02 8.244510747694103969e+00 3.006140176955445398e+01
2.338741197672401295e+00 2.010353148174129009e-02 8.313134767170049955e+00 2.955384884134089774e+01
2.356194490192344837e+00 2.030178852363461253e-02 8.381800312987481405e+00 2.903003534843884026e+01
2.373647782712288379e+00 2.050546854563099416e-02 8.450516733984308360e+00 2.850987837891634413e+01
2.391101075232231477e+00 2.071453130148456431e-02 8.519291973009405439e+00 2.802585947822808521e+01
2.408554367752174574e+00 2.092889547700932731e-02 8.588136186419042417e+00 2.758126347191608829e+01
2.426007660272118116e+00 2.114850309080096302e-02 8.657059349985821939e+00 2.716991033619202156e+01
2.443460952792061214e+00 2.137330079868192748e-02 8.726069048899228520e+00 2.678779082929943911e+01
2.460914245312004311e+00 2.160323484995877938e-02 8.795175338874063442e+00 2.643375063295550476e+01
2.478367537831947853e+00 2.183824372570997499e-02 8.864388070421949095e+00 2.610661022454024049e+01
2.495820830351891395e+00 2.207823376261891860e-02 8.933715420205544433e+00 2.580735524611339216e+01
2.513274122871834493e+00 2.232313124387298731e-02 9.003167364008474394e+00 2.553262167546679606e+01
2.530727415391777591e+00 2.257287892577420491e-02 9.072753372154561902e+00 2.527898098016839157e+01
2.548180707911721132e+00 2.282741944371179110e-02 9.142481734666992210e+00 2.504474673908046256e+01
2.565634000431664674e+00 2.308670017365326704e-02 9.212362699565563418e+00 2.482902584339954188e+01
2.583087292951607772e+00 2.335065937222498972e-02 9.282405797142533999e+00 2.463139979649708877e+01
2.600540585471550870e+00 2.361919526157834487e-02 9.352618788716101861e+00 2.445391361967381627e+01
2.617993877991494411e+00 2.389224368231944798e-02 9.423011709912067602e+00 2.429288251966971046e+01
2.635447170511437509e+00 2.416974985602004383e-02 9.493594808952975583e+00 2.414675442058955568e+01
2.652900463031380607e+00 2.445166367666573234e-02 9.564376215275336435e+00 2.401372155372813566e+01
2.670353755551324149e+00 2.473792465593184844e-02 9.635364675925666589e+00 2.389426976397911417e+01
2.687807048071267690e+00 2.502843333462477851e-02 9.706570084997528269e+00 2.379138195446117976e+01
2.705260340591210788e+00 2.532312390709617195e-02 9.778002693217056063e+00 2.370175026966150966e+01
2.722713633111153886e+00 2.562195262736863613e-02 9.849671720187904711e+00 2.362277586720936284e+01
2.740166925631096984e+00 2.592485952866519991e-02 9.921585045294893490e+00 2.355489980204790257e+01
2.757620218151040525e+00 2.623175739670460457e-02 9.993751627601179521e+00 2.350015997143593438e+01
2.775073510670984067e+00 2.654257640344467178e-02 1.006618139788063893e+01 2.345709851809608182e+01
2.792526803190927165e+00 2.685726985107125125e-02 1.013888391351633445e+01 2.342350537675049793e+01
2.809980095710870263e+00 2.717577957480180398e-02 1.021186865802914312e+01 2.339993317237389547e+01
2.827433388230813804e+00 2.749800689280092539e-02 1.028514532958909733e+01 2.338911613523548638e+01
2.844886680750756902e+00 2.782389944598052250e-02 1.035872287978088835e+01 2.338713926334794024e+01
2.862339973270700000e+00 2.815341305147739739e-02 1.043260960815500482e+01 2.339300652513632173e+01
2.879793265790643542e+00 2.848645396072381486e-02 1.050681595423012205e+01 2.341071019207055315e+01
2.897246558310587083e+00 2.882294994770910612e-02 1.058135226392267292e+01 2.343846523626451983e+01
2.914699850830530625e+00 2.916285207770922400e-02 1.065621888254963068e+01 2.347131731963370882e+01
2.932153143350473723e+00 2.950610377882535371e-02 1.073140576095520871e+01 2.350639188229107646e+01
2.949606435870416821e+00 2.985263745362298077e-02 1.080689666216414047e+01 2.354236911535372911e+01
2.967059728390360362e+00 3.020237700807330491e-02 1.088267127837023374e+01 2.357840938842708667e+01
2.984513020910303460e+00 3.055525218830141068e-02 1.095871051565594811e+01 2.361435532832746986e+01
3.001966313430246558e+00 3.091120006039023080e-02 1.103499763497972985e+01 2.365032206477921051e+01
3.019419605950190100e+00 3.127015667584125830e-02 1.111151670514540868e+01 2.368650945016868192e+01
3.036872898470133197e+00 3.163205555389640017e-02 1.118825114998595538e+01 2.372276602084354025e+01
3.054326190990076295e+00 3.199682792162662770e-02 1.126518369529210162e+01 2.375890642191079394e+01
3.071779483510019837e+00 3.236440352011249466e-02 1.134229661819111001e+01 2.379476897321518791e+01
3.089232776029963379e+00 3.273471476091945748e-02 1.141957217161498406e+01 2.383005596866086861e+01
3.106686068549906921e+00 3.310769806495579559e-02 1.149699262563778213e+01 2.386440302665457480e+01
3.124139361069850018e+00 3.348329138641340658e-02 1.157454026747562104e+01 2.389761084186750040e+01
3.141592653589793116e+00 3.386143122148322498e-02 1.165219740148667249e+01 2.392967286727150977e+01
3.159045946109736214e+00 3.424205246941117164e-02 1.172994634917116308e+01 2.396059048222755195e+01
3.176499238629679756e+00 3.462508921788198801e-02 1.180776944917137961e+01 2.399031493168542895e+01
3.193952531149622853e+00 3.501047546348780987e-02 1.188564890634055260e+01 2.401870579148645035e+01
3.211405823669565951e+00 3.539814513840571636e-02 1.196356640555263517e+01 2.404550152589931855e+01
3.228859116189509493e+00 3.578803211336549495e-02 1.204150383090801313e+01 2.407066319885962713e+01
3.246312408709452590e+00 3.618007021950926660e-02 1.211944348326771603e+01 2.409421933929351312e+01
3.263765701229396576e+00 3.657419325816017863e-02 1.219736808025340480e+01 2.411619973278802931e+01
3.281218993749339674e+00 3.697033500086784052e-02 1.227526075624739121e+01 2.413663610132808302e+01
3.298672286269282772e+00 3.736842918940833091e-02 1.235310500232442621e+01 2.415554341905664160e+01
3.316125578789226314e+00 3.776840953578419757e-02 1.243088382718153895e+01 2.417267610206255668e+01
3.333578871309169411e+00 3.817020972222447128e-02 1.250857914127369597e+01 2.418759418301917208e+01
3.351032163829112509e+00 3.857376340118464503e-02 1.258617219546570354e+01 2.419999103338814450e+01
3.368485456349056051e+00 3.897900419534668093e-02 1.266364478857533449e+01 2.420993676164553676e+01
3.385938748868999149e+00 3.938586512585414562e-02 1.274097959366801902e+01 2.421764046838416817e+01
3.403392041388942246e+00 3.979427719974959476e-02 1.281816032592402799e+01 2.422345134642090514e+01
3.420845333908885788e+00 4.020417233619713593e-02 1.289517053648351386e+01 2.422716714381381919e+01
3.438298626428828886e+00 4.061548424097930626e-02 1.297199203663628531e+01 2.422803416672186216e+01
