# angles(rad), pulling distance(m),                                     elastic band force(n), cable force(n)
0.000000000000000000e+00 3.263192307248974572e-04 2.329604369758053739e-02 1.663112684943500452e-02
1.745329251994329547e-02 6.460657255749549651e-04 4.698938328709981876e-02 3.481931571589008678e-02
3.490658503988659095e-02 9.595878909768956961e-04 7.110266282455797449e-02 5.468571519809958814e-02
5.235987755982988295e-02 1.267219638187495456e-03 9.565880182441142965e-02 7.635788098786784606e-02
6.981317007977318190e-02 1.569230357497832136e-03 1.206817898063797523e-01 9.999045672496144344e-02
8.726646259971647390e-02 1.865733201754778527e-03 1.461976169138011206e-01 1.258117144217640315e-01
1.047197551196597659e-01 2.156790946648712553e-03 1.722342671607044740e-01 1.540726351820377316e-01
1.221730476396030718e-01 2.442469314624795464e-03 1.988217005145491711e-01 1.850388165256953155e-01
1.396263401595463638e-01 2.722830417338094507e-03 2.259921688550411423e-01 2.190144427900250490e-01
1.570796326794896558e-01 2.997914507905276391e-03 2.537804684150083423e-01 2.563626149460201398e-01
1.745329251994329478e-01 3.267788278664331397e-03 2.822242251026098048e-01 2.974545161460877551e-01
1.919862177193762398e-01 3.532516683648715631e-03 3.113641910649460054e-01 3.427339778690566829e-01
2.094395102393195318e-01 3.792165143634191899e-03 3.412446284234297855e-01 3.927055351722765208e-01
2.268928027592628516e-01 4.046798442166594893e-03 3.719137943096593180e-01 4.479494990954009936e-01
2.443460952792061436e-01 4.296481016534290862e-03 4.034240898038283785e-01 5.091269309192743009e-01
2.617993877991494078e-01 4.541276779094739584e-03 4.358337376301276156e-01 5.770205251785800460e-01
2.792526803190927276e-01 4.781249279752416981e-03 4.692042774663918725e-01 6.524747623009322650e-01
2.967059728390360474e-01 5.016456844570824601e-03 5.035903494990908724e-01 7.362218152386815762e-01
3.141592653589793116e-01 5.246949651145436065e-03 5.390356246171048582e-01 8.289311192355585112e-01
3.316125578789225758e-01 5.472792229278962764e-03 5.755822716447988041e-01 9.314276471270054314e-01
3.490658503988658956e-01 5.694047969206843945e-03 6.132724321686109370e-01 1.044688667548140826e+00
3.665191429188092154e-01 5.910780234963305783e-03 6.521482824454312155e-01 1.169775939828113120e+00
3.839724354387524796e-01 6.123051909406262115e-03 6.922520963023263141e-01 1.307849918506876596e+00
4.014257279586957439e-01 6.330925662411181730e-03 7.336263008191061807e-01 1.460174946101062021e+00
4.188790204786390636e-01 6.534463723837134232e-03 7.763135186811930266e-01 1.628131076274563993e+00
4.363323129985823834e-01 6.733728911329326695e-03 8.203565942390658172e-01 1.813213232034615707e+00
4.537856055185257032e-01 6.928781010400674421e-03 8.657985919107855644e-01 2.017082501808749040e+00
4.712388980384689674e-01 7.119694694084235595e-03 9.126827928740434137e-01 2.241348165893604971e+00
4.886921905584122872e-01 7.306613042926447116e-03 9.610525991203189289e-01 2.486964404504274473e+00
5.061454830783556069e-01 7.489740539696252905e-03 1.010950257180975420e+00 2.754586347704956140e+00
5.235987755982988157e-01 7.669283466268602550e-03 1.062412588159272975e+00 3.045189765542252402e+00
5.410520681182421354e-01 7.845431574777617795e-03 1.115482875467725954e+00 3.360751199079795359e+00
5.585053606381854552e-01 8.018362651648420353e-03 1.170204088008395260e+00 3.702919554691042059e+00
5.759586531581287749e-01 8.188242920504552880e-03 1.226619320644506184e+00 4.073458018171145056e+00
5.934119456780720947e-01 8.355228124667667816e-03 1.284771489115801968e+00 4.474183713258737427e+00
6.108652381980153034e-01 8.519464490551433705e-03 1.344703302682674906e+00 4.906983127973754577e+00
6.283185307179586232e-01 8.681089482848125538e-03 1.406457420075265974e+00 5.373830828562168094e+00
6.457718232379019430e-01 8.840232554718751787e-03 1.470075685466998072e+00 5.876703522475756003e+00
6.632251157578451517e-01 8.997015821557716522e-03 1.535602238752219684e+00 6.417950330493789934e+00
6.806784082777884715e-01 9.151554632136203737e-03 1.603066526370088729e+00 6.998225287277154649e+00
6.981317007977317912e-01 9.303958099236489879e-03 1.672457024866036424e+00 7.614828512538907468e+00
7.155849933176750000e-01 9.454329620087688693e-03 1.743720219187586018e+00 8.263737183674921383e+00
7.330382858376184307e-01 9.602767279914818654e-03 1.816782187874200094e+00 8.942318511046899232e+00
7.504915783575616395e-01 9.749364273569757072e-03 1.891581769349762521e+00 9.651597972548213278e+00
7.679448708775049592e-01 9.894209281676120959e-03 1.968065732379788768e+00 1.039217496577183475e+01
7.853981633974482790e-01 1.003738677036710228e-02 2.046177763659616566e+00 1.116314463539928603e+01
8.028514559173914877e-01 1.017897735064993321e-02 2.125857891793654364e+00 1.196326965215594562e+01
8.203047484373349185e-01 1.031905800198298917e-02 2.207042487295382660e+00 1.279104929061112550e+01
8.377580409572781273e-01 1.045770238804416552e-02 2.289665738407643314e+00 1.364495401812515318e+01
8.552113334772214470e-01 1.059498104301109106e-02 2.373664841121944313e+00 1.452416013594865518e+01
8.726646259971647668e-01 1.073096163845743342e-02 2.458978621951302568e+00 1.542755144795722444e+01
8.901179185171079755e-01 1.086570914321592120e-02 2.545546824668382779e+00 1.635380291001874653e+01
9.075712110370514063e-01 1.099928605368304980e-02 2.633309780438946479e+00 1.730142200344775816e+01
9.250245035569946150e-01 1.113175252506715986e-02 2.722206540591395552e+00 1.826842214454958224e+01
9.424777960769379348e-01 1.126316658009319897e-02 2.812174817642977054e+00 1.925262279297686874e+01
9.599310885968812546e-01 1.139358420893166364e-02 2.903152854797600213e+00 2.025210476847960450e+01
9.773843811168245743e-01 1.152305956558847579e-02 2.995081736167882980e+00 2.126539912520038911e+01
9.948376736367677831e-01 1.165164504110405459e-02 3.087902095476207531e+00 2.229024552437128293e+01
1.012290966156711214e+00 1.177939144430391327e-02 3.181553806697121622e+00 2.332417593569705616e+01
1.029744258676654312e+00 1.190634806648714281e-02 3.275978460241813828e+00 2.436526159949056947e+01
1.047197551196597631e+00 1.203256282843293869e-02 3.371118535031011998e+00 2.541132785116241877e+01
1.064650843716540951e+00 1.215808236261825374e-02 3.466895950515046732e+00 2.645407633541452697e+01
1.082104136236484271e+00 1.228295210836519158e-02 3.563264410659161552e+00 2.749955982431957580e+01
1.099557428756427591e+00 1.240721642652044265e-02 3.660158903808409026e+00 2.853990969371723097e+01
1.117010721276370910e+00 1.253091864549095782e-02 3.757519206586750649e+00 2.957369808668669364e+01
1.134464013796314230e+00 1.265410119267255593e-02 3.855280420200566383e+00 3.059661464418022092e+01
1.151917306316257550e+00 1.277680562982749964e-02 3.953395472673912447e+00 3.161153852647438356e+01
1.169370598836200648e+00 1.289907275425184255e-02 4.051785943528775746e+00 3.260542264847303784e+01
1.186823891356144189e+00 1.302094266949034920e-02 4.150395747651943523e+00 3.358250565027658752e+01
1.204277183876087287e+00 1.314245483077825481e-02 4.249168972840670300e+00 3.454009206740339266e+01
1.221730476396030607e+00 1.326364815212864763e-02 4.348046182575684426e+00 3.547412262834826180e+01
1.239183768915973927e+00 1.338456102989184562e-02 4.446965856654137461e+00 3.638093983998514602e+01
1.256637061435917246e+00 1.350523143231239023e-02 4.545864177069699252e+00 3.725671937205039796e+01
1.274090353955860566e+00 1.362569695805050662e-02 4.644679099867145666e+00 3.809916603610240315e+01
1.291543646475803886e+00 1.374599487238770991e-02 4.743350475986330750e+00 3.890615406425386880e+01
1.308996938995747206e+00 1.386616220444922276e-02 4.841818017788118489e+00 3.967483590458252252e+01
1.326450231515690303e+00 1.398623576825200159e-02 4.940021312968241318e+00 4.040242962975085561e+01
1.343903524035633845e+00 1.410625223791090767e-02 5.037899823507556718e+00 4.108620528271045913e+01
1.361356816555576943e+00 1.422624821069774087e-02 5.135391953029543544e+00 4.172309168411178604e+01
1.378810109075520263e+00 1.434626023278706350e-02 5.232435426324368422e+00 4.231023681806468062e+01
1.396263401595463582e+00 1.446632489464384427e-02 5.328969315752529745e+00 4.284575717262674743e+01
1.413716694115406902e+00 1.458647885684853304e-02 5.424932848399489416e+00 4.332738687535596966e+01
1.431169986635350000e+00 1.470675891293650450e-02 5.520265376022964965e+00 4.375296026331431420e+01
1.448623279155293542e+00 1.482720206467557506e-02 5.614906328191027640e+00 4.412040647904289159e+01
1.466076571675236861e+00 1.494784554298143886e-02 5.708795185383660709e+00 4.442778535807721596e+01
1.483529864195180181e+00 1.506872690487759403e-02 5.801871507380995219e+00 4.467329389224325098e+01
1.500983156715123279e+00 1.518988406981752921e-02 5.894075042556528032e+00 4.485533775761556541e+01
1.518436449235066599e+00 1.531135537767873769e-02 5.985345913057448008e+00 4.497257347044075004e+01
1.535889741755009918e+00 1.543317967836206270e-02 6.075624751456295769e+00 4.502388620596749291e+01
1.553343034274953460e+00 1.555539635510313871e-02 6.164848222927042265e+00 4.500606416464182757e+01
1.570796326794896558e+00 1.567804543093812703e-02 6.252948935221311011e+00 4.491589124355436269e+01
1.588249619314839878e+00 1.580116761445098800e-02 6.339876137888156293e+00 4.476103998458831512e+01
1.605702911834782975e+00 1.592480436935563362e-02 6.425624461853352010e+00 4.456494579291032210e+01
1.623156204354726295e+00 1.604899801594382447e-02 6.510200542934496681e+00 4.433457460183007015e+01
1.640609496874669837e+00 1.617379176574802735e-02 6.593601256624628704e+00 4.406559234364196698e+01
1.658062789394613157e+00 1.629922985216048989e-02 6.675842089631861320e+00 4.376874920355363230e+01
1.675516081914556255e+00 1.642535757688366044e-02 6.756923179042676253e+00 4.343681721242617044e+01
1.692969374434499574e+00 1.655222142250949852e-02 6.836855448036232019e+00 4.307652554962413660e+01
1.710422666954442894e+00 1.667986914882538946e-02 6.915639665931776037e+00 4.268335034652384508e+01
1.727875959474386436e+00 1.680834987245105605e-02 6.993291832005916753e+00 4.226659403989910402e+01
1.745329251994329534e+00 1.693771421463905261e-02 7.069805954949251792e+00 4.181523230229842625e+01
1.762782544514272853e+00 1.706801436408588932e-02 7.145194110798571252e+00 4.134016802630758036e+01
1.780235837034215951e+00 1.719930425690011436e-02 7.219465380353576656e+00 4.084083304614964760e+01
1.797689129554159271e+00 1.733163964949844052e-02 7.292625274970101046e+00 4.031632703233126591e+01
1.815142422074102813e+00 1.746507831212966780e-02 7.364675116971699076e+00 3.976536246000466690e+01
1.832595714594046132e+00 1.759968013001618828e-02 7.435622941132607799e+00 3.919272987821506149e+01
1.850049007113989230e+00 1.773550730745876436e-02 7.505475604527239497e+00 3.859886297359779661e+01
1.867502299633932550e+00 1.787262450124740484e-02 7.574239926109864740e+00 3.798484024008137538e+01
1.884955592153875870e+00 1.801109904509058321e-02 7.641922484683941086e+00 3.735162087075980253e+01
1.902408884673818967e+00 1.815100111194156360e-02 7.708530757957953838e+00 3.670081041862752613e+01
1.919862177193762509e+00 1.829240397444493321e-02 7.774071823472874065e+00 3.603328402830513966e+01
1.937315469713705829e+00 1.843538419270720694e-02 7.838546967884813199e+00 3.534694896094536176e+01
1.954768762233649149e+00 1.858002192485616252e-02 7.901962025221114239e+00 3.464541150179262985e+01
1.972222054753592246e+00 1.872640114800994821e-02 7.964328036275233558e+00 3.393264150795065603e+01
1.989675347273535566e+00 1.887461001710437694e-02 8.025653210604403398e+00 3.320817338753199977e+01
2.007128639793478886e+00 1.902474115530597767e-02 8.085937746868037124e+00 3.246874786707951444e+01
2.024581932313422428e+00 1.917689203398759840e-02 8.145186736720807730e+00 3.171812680245759353e+01
2.042035224833365525e+00 1.933116538261778553e-02 8.203409582125226862e+00 3.095971223351960333e+01
2.059488517353308623e+00 1.948766958986537443e-02 8.260613744007956782e+00 3.019353244065579034e+01
2.076941809873252165e+00 1.964651922223251135e-02 8.316805347222191003e+00 2.941993752941193918e+01
2.094395102393195263e+00 1.980783554075725775e-02 8.371990403080006971e+00 2.863992696214370781e+01
2.111848394913138804e+00 1.997174706879881537e-02 8.426174840336729588e+00 2.785451074769073188e+01
2.129301687433081902e+00 2.013839026471572063e-02 8.479364443661243200e+00 2.706465323836087933e+01
2.146754979953025444e+00 2.030791023941822676e-02 8.531564848102961562e+00 2.627130734140814283e+01
2.164208272472968542e+00 2.048046154695996532e-02 8.582781747437916664e+00 2.547552232637103486e+01
2.181661564992911639e+00 2.065620907744980181e-02 8.633021280961422406e+00 2.467852383730063792e+01
2.199114857512855181e+00 2.083532906497099352e-02 8.682290075534705664e+00 2.388153170826696936e+01
2.216568150032798723e+00 2.101801020604666601e-02 8.730595245584895636e+00 2.308573755857243981e+01
2.234021442552741821e+00 2.120445492676588731e-02 8.777944393105027387e+00 2.229230103106915806e+01
2.251474735072684918e+00 2.139488076783939430e-02 8.824345607654047186e+00 2.150235238490493828e+01
2.268928027592628460e+00 2.158952211203531493e-02 8.869807466356801839e+00 2.071697230729475692e+01
2.286381320112572002e+00 2.178863158357341456e-02 8.914331002663466563e+00 1.993363434600673756e+01
2.303834612632515100e+00 2.199248364498974581e-02 8.957921191048153986e+00 1.915494351835360476e+01
2.321287905152458197e+00 2.220137192058427994e-02 9.000585656956019420e+00 1.838328067092657392e+01
2.338741197672401295e+00 2.241562252739348615e-02 9.042331748527416835e+00 1.761871365569268377e+01
2.356194490192344837e+00 2.263537728333376783e-02 9.083163846937864605e+00 1.687720652458526516e+01
2.373647782712288379e+00 2.286072717784088520e-02 9.123089206432517528e+00 1.616342519552869916e+01
2.391101075232231477e+00 2.309176080150653065e-02 9.162114643052859719e+00 1.547634143626786773e+01
2.408554367752174574e+00 2.332842477658179925e-02 9.200255965821448001e+00 1.482734887024607495e+01
2.426007660272118116e+00 2.357055488353572426e-02 9.237531692886022938e+00 1.422110263222621285e+01
2.443460952792061214e+00 2.381804879105410902e-02 9.273960301921245986e+00 1.365033496922702660e+01
2.460914245312004311e+00 2.407078466053537077e-02 9.309560027536164739e+00 1.311320720941307805e+01
2.478367537831947853e+00 2.432861002084434413e-02 9.344347073047964969e+00 1.260784534611428676e+01
2.495820830351891395e+00 2.459141442398530067e-02 9.378351123123707112e+00 1.213457299067970752e+01
2.513274122871834493e+00 2.485908193339233033e-02 9.411607910800464438e+00 1.169360624603912235e+01
2.530727415391777591e+00 2.513146681172365865e-02 9.444158702033755404e+00 1.128604642692562798e+01
2.548180707911721132e+00 2.540843927396486263e-02 9.476044642690732545e+00 1.090912052031234936e+01
2.565634000431664674e+00 2.568987762620199983e-02 9.507303266273385844e+00 1.055951371674331618e+01
2.583087292951607772e+00 2.597565751170726953e-02 9.537968442290537752e+00 1.023457198926937473e+01
2.600540585471550870e+00 2.626565205106607195e-02 9.568070658244222315e+00 9.931915609563214176e+00
2.617993877991494411e+00 2.655973309661965528e-02 9.597638461810859667e+00 9.649757882499290673e+00
2.635447170511437509e+00 2.685777279678978197e-02 9.626698920676078686e+00 9.386544404401700348e+00
2.652900463031380607e+00 2.715964548479717425e-02 9.655277622732544529e+00 9.140783960083933124e+00
2.670353755551324149e+00 2.746522930637923174e-02 9.683398683346419844e+00 8.911055562854155454e+00
2.687807048071267690e+00 2.777439971994066087e-02 9.711084888870988863e+00 8.696274944380760985e+00
2.705260340591210788e+00 2.808700635899264234e-02 9.738357828151142925e+00 8.496097285106753105e+00
2.722713633111153886e+00 2.840294169760361476e-02 9.765237897382258225e+00 8.308354231407147239e+00
2.740166925631096984e+00 2.872207077141098602e-02 9.791744300110188703e+00 8.132882245141086486e+00
2.757620218151040525e+00 2.904427342489802541e-02 9.817895053301013419e+00 7.968443078095727827e+00
2.775073510670984067e+00 2.936940749434614750e-02 9.843707189664225865e+00 7.814841204750930359e+00
2.792526803190927165e+00 2.969736374622234873e-02 9.869197002521609363e+00 7.670656778389125741e+00
2.809980095710870263e+00 3.002801849270293755e-02 9.894380060483401351e+00 7.535677295162586553e+00
2.827433388230813804e+00 3.036123171644267496e-02 9.919271207448295158e+00 7.409731061636512628e+00
2.844886680750756902e+00 3.069687837350583426e-02 9.943884562603440003e+00 7.291964844895555409e+00
2.862339973270700000e+00 3.103483089563192215e-02 9.968233526206253359e+00 7.181960169641324221e+00
2.879793265790643542e+00 3.137494504129816758e-02 9.992330907529453299e+00 7.079652853445917771e+00
2.897246558310587083e+00 3.171710078961881979e-02 1.001618905006900206e+01 6.984178030984117491e+00
2.914699850830530625e+00 3.206120757040908931e-02 1.003981983677840972e+01 6.894628481860177516e+00
2.932153143350473723e+00 3.240708238763255478e-02 1.006323469006873772e+01 6.812556224405913241e+00
2.949606435870416821e+00 3.275465566910459175e-02 1.008644457180860066e+01 6.735419497605942496e+00
2.967059728390360362e+00 3.310375558490174369e-02 1.010945998332416451e+01 6.664950954944784733e+00
2.984513020910303460e+00 3.345426385756269938e-02 1.013229097753318086e+01 6.599852119778389259e+00
3.001966313430246558e+00 3.380605982393775771e-02 1.015494727350364990e+01 6.539969555754137964e+00
3.019419605950190100e+00 3.415901672846238107e-02 1.017743831945984212e+01 6.485245933000539864e+00
3.036872898470133197e+00 3.451301785908612862e-02 1.019977329343575789e+01 6.435337386288007444e+00
3.054326190990076295e+00 3.486794511353390885e-02 1.022196110327512564e+01 6.390124350911234430e+00
3.071779483510019837e+00 3.522364354773647316e-02 1.024401038663140184e+01 6.350128817009671245e+00
3.089232776029963379e+00 3.557997874997090998e-02 1.026592951096777817e+01 6.314845795990732924e+00
3.106686068549906921e+00 3.593683798423533138e-02 1.028772657358413234e+01 6.283772389036649031e+00
3.124139361069850018e+00 3.629410417835884223e-02 1.030940943068450721e+01 6.256887865452890551e+00
3.141592653589793116e+00 3.665165305089961717e-02 1.033098578177028948e+01 6.234251969687806927e+00
3.159045946109736214e+00 3.700935311114489368e-02 1.035246318486989914e+01 6.215934790250304154e+00
3.176499238629679756e+00 3.736706994511872909e-02 1.037384905653879308e+01 6.201939175494479706e+00
3.193952531149622853e+00 3.772467971993907765e-02 1.039515067185946329e+01 6.192042734950282679e+00
3.211405823669565951e+00 3.808205891112968061e-02 1.041637516444143330e+01 6.186210133617219498e+00
3.228859116189509493e+00 3.843908066294611514e-02 1.043752952642126886e+01 6.184476902422999522e+00
3.246312408709452590e+00 3.879561478837578042e-02 1.045862060846256192e+01 6.186886739832477389e+00
3.263765701229396576e+00 3.915152776913791155e-02 1.047965512793866516e+01 6.193494528337929239e+00
3.281218993749339674e+00 3.950668275568357257e-02 1.050063972856901096e+01 6.204382295469741848e+00
3.298672286269282772e+00 3.986093957774342750e-02 1.052158100682346387e+01 6.219650316386208466e+00
3.316125578789226314e+00 4.021416330685359530e-02 1.054248551204006112e+01 6.239259291483826964e+00
3.333578871309169411e+00 4.056624826853259119e-02 1.056335974642500730e+01 6.262751075418289126e+00
3.351032163829112509e+00 4.091712221991120058e-02 1.058421016505268319e+01 6.289586671155595887e+00
3.368485456349056051e+00 4.126674557911820529e-02 1.060504317586564405e+01 6.319228201909552034e+00
3.385938748868999149e+00 4.161510602745788906e-02 1.062586513967461421e+01 6.351219848057074735e+00
3.403392041388942246e+00 4.196221620161384724e-02 1.064668237017455787e+01 6.385132371833917908e+00
3.420845333908885788e+00 4.230810850895458386e-02 1.066750115417528555e+01 6.420622767348985960e+00
3.438298626428828886e+00 4.265281639534647395e-02 1.068832781137468757e+01 6.457703700729068963e+00
